time,ecg
0.0,0.0
0.0027785495971103086,0.016371417499489914
0.005557099194220617,0.021788832650135342
0.008335648791330925,0.01312779518726596
0.011114198388441235,-0.0026735757834388052
0.013892747985551544,-0.013574261671011039
0.01667129758266185,-0.011037547576752946
0.01944984717977216,0.0038666384539184926
0.02222839677688247,0.021226179831060284
0.025006946373992776,0.029371590430075326
0.027785495971103087,0.023216995866311277
0.030564045568213394,0.007895174536257264
0.0333425951653237,-0.004911655357338073
0.03612114476243401,-0.005322562758504203
0.03889969435954432,0.007678924266881285
0.04167824395665463,0.02551793094169321
0.04445679355376494,0.03615720928004507
0.04723534315087525,0.03270100517373712
0.05001389274798555,0.018323806751338687
0.052792442345095864,0.0040009230043694475
0.055570991942206174,0.0006630668410060013
0.05834954153931648,0.01138281778888617
0.06112809113642679,0.029178052111919563
0.06390664073353709,0.04200244052148369
0.0666851903306474,0.04135582426185175
0.06946373992775771,0.028359804642293162
0.07224228952486803,0.012955737162999666
0.07502083912197834,0.006798401201580748
0.07779938871908865,0.014924924074499277
0.08057793831619894,0.03215398194032121
0.08335648791330925,0.04678911557622986
0.08613503751041957,0.04897904469524142
0.08891358710752988,0.03775905909530208
0.09169213670464019,0.021740326344036068
0.0944706863017505,0.012954401525025867
0.09724923589886081,0.01825286088175933
0.1000277854959711,0.03440956961091914
0.10280633509308142,0.05042646482592854
0.10558488469019173,0.05539468864384059
0.10836343428730204,0.04629196257530541
0.11114198388441235,0.030142668876597997
0.11392053348152266,0.01899662078493231
0.11669908307863296,0.021315678246429444
0.11947763267574327,0.03592502453226999
0.12225618227285358,0.052852708995923946
0.1250347318699639,0.06045735399914038
0.12781328146707419,0.0537491674848197
0.1305918310641845,0.03795643219891417
0.1333703806612948,0.024788158310240706
0.13614893025840513,0.02406434162983281
0.13892747985551543,0.036696488054899466
0.14170602945262575,0.05403589954449322
0.14448457904973605,0.06405556448285017
0.14726312864684635,0.05994686008051285
0.15004167824395667,0.04498617572572819
0.15282022784106697,0.030192812938343132
0.1555987774381773,0.026452286463209122
0.1583773270352876,0.036735261882617776
0.1611558766323979,0.05397400449360721
0.1639344262295082,0.06611424601485633
0.1667129758266185,0.0647314134946855
0.16949152542372883,0.05105237183848159
0.17227007502083913,0.03507836066333292
0.17504862461794946,0.02843604702612297
0.17782717421505975,0.036066735201578506
0.18060572381217005,0.05269425573787172
0.18338427340928037,0.06659627369812703
0.18616282300639067,0.06798329890562155
0.188941372603501,0.05599611261571205
0.1917199222006113,0.039319875875296575
0.19449847179772162,0.029975957205728144
0.19727702139483191,0.03472905829846433
0.2000555709919422,0.05025179259172207
0.20283412058905254,0.06550305813744864
0.20561267018616283,0.06962015262196408
0.20839121978327316,0.059683375852498825
0.21116976938038345,0.0428030105077456
0.21394831897749375,0.03103691501644967
0.21672686857460408,0.032771614423992915
0.21950541817171437,0.046727653693925945
0.2222839677688247,0.06287416478227612
0.225062517365935,0.06959891830666551
0.22784106696304532,0.062008733320911794
0.23061961656015562,0.04542714289950862
0.2333981661572659,0.03158919706043575
0.23617671575437624,0.03025334383792151
0.23895526535148653,0.0422261849432078
0.24173381494859686,0.05878598490579025
0.24451236454570716,0.06791700720541206
0.24729091414281748,0.06289839689815298
0.2500694637399278,0.04710830809028274
0.2528480133370381,0.0316093036293456
0.25562656293414837,0.02724097436417674
0.2584051125312587,0.03687194450881587
0.261183662128369,0.0533495010434124
0.26396221172547935,0.06461244444247981
0.2667407613225896,0.062312513842426503
0.26951931091969994,0.04778182369339895
0.27229786051681026,0.031080810136641934
0.27507641011392053,0.02380721146410371
0.27785495971103086,0.0308061968332159
0.2806335093081412,0.04670721257999117
0.2834120589052515,0.05976299554011953
0.2861906085023618,0.06024664074961524
0.2889691580994721,0.047404530440689166
0.2917477076965824,0.029995196263869806
0.2945262572936927,0.020028937929598686
0.297304806890803,0.02418309568511598
0.30008335648791334,1.039029308102674
0.3028619060850236,0.05348429361671363
0.30564045568213394,0.056732346121144944
0.30841900527924426,0.045956573913595596
0.3111975548763546,0.028352620821101196
0.31397610447346486,0.01598546898096919
0.3167546540705752,0.017165661575264408
0.3195332036676855,0.03050918959048721
0.3223117532647958,0.045927013528202276
0.3250903028619061,0.05183691349468155
0.3278688524590164,0.04344266372791948
0.33064740205612675,0.026162608048508097
0.333425951653237,0.011756903041889432
0.33620450125034734,0.009921661144451602
0.33898305084745767,0.02135846902762096
0.34176160044456794,0.03727316385275901
0.34454015004167826,0.04566214016303105
0.3473186996387886,0.03989275832041832
0.3500972492358989,0.02344461007415759
0.3528757988330092,0.007422602002951577
0.3556543484301195,0.0026194954867053283
0.35843289802722983,0.01180157022459727
0.3612114476243401,0.027731590427133485
0.3639899972214504,0.03834225002525142
0.36676854681856075,0.03536213721896106
0.3695470964156711,0.02022841060113829
0.37232564601278134,0.003059827646074067
0.37510419560989167,-0.004575799123398637
0.377882745207002,0.0020700772219986417
0.38066129480411226,0.017532805519474684
0.3834398444012226,0.03004096245040805
0.3862183939983329,0.029930837927560308
0.38899694359544323,0.016554336685859143
0.3917754931925535,-0.0012574466324314602
0.39455404278966383,-0.011506340798634928
0.39733259238677415,-0.0076030245525203774
0.4001111419838844,0.006923274127556771
0.40288969158099475,0.0209477815589172
0.40566824117810507,0.02370245093334602
0.4084467907752154,0.012473248698721387
0.41122534037232567,-0.005459537305645636
0.414003889969436,-0.01802489319969958
0.4167824395665463,-0.016989067285445723
0.4195609891636566,-0.003840697137678847
0.4223395387607669,0.011273591424195241
0.42511808835787723,0.016802283411355208
0.4278966379549875,0.008046283185508601
0.4306751875520978,-0.009481861384643079
0.43345373714920815,-0.023997980307294834
0.4362322867463185,-0.025869235787283736
0.43901083634342875,-0.014499312954454738
0.44178938594053907,0.001245661785465417
0.4445679355376494,0.009374919500462466
0.44734648513475966,0.0033443292774848355
0.45012503473187,-0.013265559287914142
0.4529035843289803,-0.029308559310442957
0.45568213392609064,-0.0340397810319901
0.4584606835232009,-0.024795722249845074
0.46123923312031123,-0.008897814593509482
0.46401778271742156,0.0015812220669359327
0.4667963323145318,-0.0015527736155924246
0.46957488191164215,-0.01675793929243164
0.4723534315087525,-0.0338581999667823
0.4751319811058628,-0.041316784924554
0.47791053070297307,-0.0344823676157894
0.4806890803000834,-0.01891351825631777
0.4834676298971937,-0.00640516282675338
0.486246179494304,-0.006557321045404147
0.4890247290914143,-0.019912758432710072
0.49180327868852464,-0.037568733579412095
0.49458182828563496,-0.047540362364172535
0.49736037788274523,-0.04332708997992732
0.5001389274798556,-0.02855898829351203
0.5029174770769659,-0.014401722449516072
0.5056960266740762,-0.011575107134502119
0.5084745762711865,-0.022690359153255145
0.5112531258682967,-0.04038335001896004
0.5140316754654071,-0.052578202832152254
0.5168102250625174,-0.05111883393166061
0.5195887746596277,-0.03759864530208287
0.522367324256738,-0.022221325221973856
0.5251458738538484,-0.016507052752252043
0.5279244234509587,-0.0250576842894886
0.5307029730480689,-0.04226713655469783
0.5334815226451792,-0.056328372219627144
0.5362600722422896,-0.05767280972634334
0.5390386218393999,-0.045809698394039255
0.5418171714365102,-0.029676698813939986
0.5445957210336205,-0.021251075050097556
0.5473742706307309,-0.02698819497722422
0.5501528202278411,-0.043207067211660365
0.5529313698249514,-0.0587213158952133
0.5557099194220617,-0.06283498234440141
0.558488469019172,-0.05298778412563089
0.5612670186162824,-0.03658502865285865
0.5640455682133927,-0.025704165892942995
0.566824117810503,-0.02846171684497923
0.5696026674076132,-0.043211465532257944
0.5723812170047236,-0.059721025530123935
0.5751597666018339,-0.06648577567920856
0.5779383161989442,-0.05895219078131776
0.5807168657960545,-0.04277256089415337
0.5834954153931649,-0.029764637935798907
0.5862739649902752,-0.02946423935042683
0.5890525145873854,-0.04230897661639718
0.5918310641844957,-0.059325354355887705
0.594609613781606,-0.06854290049094458
0.5973881633787164,-0.06355053091581479
0.6001667129758267,-0.048079090824176204
0.602945262572937,-0.033334489092357956
0.6057238121700472,-0.029987691453111743
0.6085023617671576,-0.04054709581418249
0.6112809113642679,-0.05756548772668154
0.6140594609613782,-0.06896323764127675
0.6168380105584885,-0.06666273821314492
0.6196165601555989,-0.05236221774381598
0.6223951097527092,-0.03632182922792529
0.6251736593498194,-0.030029714085821106
0.6279522089469297,-0.037990311174272
0.63073075854404,-0.05450459750118403
0.6335093081411504,-0.0677437327032503
0.6362878577382607,-0.06820428124219531
0.639066407335371,-0.05550125068512205
0.6418449569324813,-0.03864330736180153
0.6446235065295916,-0.0295934462517538
0.6474020561267019,-0.03471792449374349
0.6501806057238122,-0.050235729278624686
0.6529591553209225,-0.06492128366647695
0.6557377049180328,-0.06812850615902671
0.6585162545151432,-0.05740065582456689
0.6612948041122535,-0.0402264737284299
0.6640733537093637,-0.028687337222279955
0.666851903306474,-0.03082162142198648
0.6696304529035844,-0.04487899039044391
0.6724090025006947,-0.06057162944827636
0.675187552097805,-0.06642804232995451
0.6779661016949153,-0.057992946064290195
0.6807446512920257,-0.04101200892377519
0.6835232008891359,-0.02732499245503909
0.6863017504862462,-0.02640286445988248
0.6890803000833565,-0.03857812328623924
0.6918588496804668,-0.054807272588528216
0.6946373992775772,-0.06313522865942323
0.6974159488746875,-0.0572409257575309
0.7001944984717978,-0.04095575220403972
0.702973048068908,-0.025525055726590782
0.7057515976660184,-0.021570183853163085
0.7085301472631287,-0.03149656314972475
0.711308696860239,-0.04777449417299047
0.7140872464573493,-0.058321543481761245
0.7168657960544597,-0.05513921867216297
0.71964434565157,-0.04003046290107789
0.7224228952486802,-0.02331112481898908
0.7252014448457905,-0.016436440359252402
0.7279799944429008,-0.023813089902554443
0.7307585440400112,-0.039649542049959574
0.7335370936371215,-0.05209604655699805
0.7363156432342318,-0.05171502465437051
0.7390941928313421,-0.0382272529040272
0.7418727424284524,-0.020711693156612865
0.7446512920255627,-0.011116130787736815
0.747429841622673,-0.015717192950603434
0.7502083912197833,-0.030634094178955934
0.7529869408168937,-0.044602867318877526
0.755765490414004,-0.04702806964108353
0.7585440400111143,-0.03555663419610047
0.7613225896082245,-0.017760105290265255
0.7641011392053348,-0.005722802251680845
0.7668796888024452,-0.007404271937913317
0.7696582383995555,-0.020950116941490356
0.7724367879966658,-0.036017798377179305
0.7752153375937761,-0.041169734184650406
0.7779938871908865,-0.03204913342998146
0.7807724367879967,-0.014494510284047378
0.783550986385107,-0.00036663444738428
0.7863295359822173,0.000929201670042238
0.7891080855793277,-0.010834252994204962
0.791886635176438,-0.0265440767123944
0.7946651847735483,-0.034261366960668095
0.7974437343706586,-0.02775543531128151
0.8002222839677688,-0.010957794064872529
0.8030008335648792,0.004847758726313066
0.8057793831619895,0.009090439124671355
0.8085579327590998,-0.0005318843846855107
0.8113364823562101,-0.016407456389597144
0.8141150319533205,-0.026451811263050403
0.8168935815504308,-0.02274602791227618
0.819672131147541,-0.0071974697996153286
0.8224506807446513,0.009823265988478248
0.8252292303417617,0.016894886990703236
0.828007779938872,0.009708976090137354
0.8307863295359823,-0.005850695383150813
0.8335648791330926,-0.017914193666758088
0.8363434287302028,-0.01711033567705944
0.8391219783273132,-0.00326550448655414
0.8419005279244235,0.014471921564175736
0.8446790775215338,0.02417046773412912
0.8474576271186441,0.019643809088333894
0.8502361767157545,0.004872405264136044
0.8530147263128648,-0.008842044275970146
0.855793275909975,-0.010955339475054438
0.8585718255070853,0.0007819397421940707
0.8613503751041957,0.018716232037305738
0.864128924701306,0.03076140896221269
0.8669074742984163,0.02903757318039763
0.8696860238955266,0.015503259651193873
0.872464573492637,0.0005551632916662476
0.8752431230897472,-0.004403697243135246
0.8780216726868575,0.004884869587232457
0.8808002222839678,0.022490175416703492
0.8835787718810781,0.03653157508337459
0.8863573214781885,0.03767039917952824
0.8891358710752988,0.025784894121329935
0.8919144206724091,0.010056947338458784
0.8946929702695193,0.002408606871444032
0.8974715198666297,0.008979947084310531
0.90025006946374,0.02573987076907488
0.9030286190608503,0.041367230233214716
0.9058071686579606,0.04534285277515818
0.908585718255071,0.03546832072088162
0.9113642678521813,0.019437109917911772
0.9141428174492915,0.009335042811956941
0.9169213670464018,0.01300111207840347
0.9196999166435121,0.0284239263227876
0.9224784662406225,0.045179177907905814
0.9252570158377328,0.05188063632571306
0.9280355654348431,0.04431872465823256
0.9308141150319534,0.028469254814762257
0.9335926646290637,0.016221688810576146
0.936371214226174,0.01688034927413718
0.9391497638232843,0.03051348266336
0.9419283134203946,0.04790424037074798
0.944706863017505,0.05713861634644116
0.9474854126146153,0.052121307834547825
0.9502639622117256,0.03693239348782719
0.9530425118088358,0.02291069151593964
0.9558210614059461,0.020548602796844097
0.9585996110030565,0.03199197528362625
0.9613781606001668,0.049506059046969045
0.9641567101972771,0.06100408171707242
0.9669352597943874,0.05868663908286618
0.9697138093914978,0.044616496407071
0.972492358988608,0.02924395312646285
0.9752709085857183,0.023936834887071178
0.9780494581828286,0.03285464712218786
0.980828007779939,0.04997521528785814
0.9836065573770493,0.06339915841563307
0.9863851069741596,0.06385537423656328
0.9891636565712699,0.05132784655651007
0.9919422061683801,0.03506695748341861
0.9947207557654905,0.026977218627956392
0.9974993053626008,0.03310784667586663
1.000277854959711,0.04932868857100665
1.0030564045568213,0.06428232908564865
1.0058349541539318,0.06750222522733212
1.008613503751042,0.0568940550063149
1.0113920533481524,0.04023264011040438
1.0141706029452626,0.029604447722110815
1.016949152542373,0.03276815071146351
1.0197277021394833,0.04760868593697645
1.0225062517365935,0.06364902935024569
1.025284801333704,0.06953907666539604
1.0280633509308141,0.06116860534679813
1.0308419005279246,0.04460520264178538
1.0336204501250348,0.03175713955953437
1.0363989997221452,0.031861352490112495
1.0391775493192554,0.04488089181004271
1.0419560989163656,0.061531316860786826
1.044734648513476,0.06991717027415573
1.0475131981105863,0.06403480428677112
1.0502917477076967,0.04806377016693703
1.053070297304807,0.03337930142313378
1.0558488469019174,0.030421356769212808
1.0586273964990276,0.041232200927221456
1.0614059460961378,0.057996632966022615
1.0641844956932482,0.06862830155946857
1.0669630452903585,0.06540902961177608
1.069741594887469,0.050505790863377975
1.072520144484579,0.03442182393176911
1.0752986940816895,0.028489021730390467
1.0780772436787998,0.036768008580315675
1.08085579327591,0.053145699978334016
1.0836343428730204,0.06570499855577713
1.0864128924701306,0.06524318364137474
1.089191442067241,0.05185008095726338
1.0919699916643513,0.03484396097661296
1.0947485412614617,0.02611098551405068
1.097527090858572,0.031609141502376786
1.1003056404556821,0.04710961869320296
1.1030841900527926,0.06121967873388103
1.1058627396499028,0.06352627990005112
1.1086412892470132,0.05203942451114469
1.1114198388441234,0.03461475169592433
1.1141983884412339,0.02333851138227587
1.116976938038344,0.025888519317947594
1.1197554876354543,0.04004625052802398
1.1225340372325647,0.055282806484098515
1.125312586829675,0.060285112427901036
1.1280911364267854,0.051042646692091916
1.1308696860238956,0.03371433765493923
1.133648235621006,0.02022638087951933
1.1364267852181162,0.01974764041799908
1.1392053348152265,0.03213598588800655
1.141983884412337,0.048040099307778306
1.144762434009447,0.05558398044663547
1.1475409836065575,0.048856090833642965
1.1503195332036678,0.03213512751049791
1.1530980828007782,0.016831858941355245
1.1558766323978884,0.013332987385798908
1.1586551819949986,0.023577014713866463
1.161433731592109,0.03966885528041378
1.1642122811892193,0.049523465356371706
1.1669908307863297,0.04550444351170404
1.16976938038344,0.029882762156763696
1.1725479299805504,0.01321374896255211
1.1753264795776606,0.006792445736533429
1.1781050291747708,0.014580226275417567
1.1808835787718812,0.030373496847084278
1.1836621283689914,0.042238281629811886
1.1864406779661019,0.0410408676758903
1.189219227563212,0.026976835729752652
1.1919977771603223,0.009431549635389235
1.1947763267574327,0.0002718258626983987
1.197554876354543,0.005363872895933829
1.2003334259516534,0.02038044598433831
1.2031119755487636,0.0338942474382432
1.205890525145874,0.03554642121987431
1.2086690747429842,0.02345133189996917
1.2114476243400945,0.00554471916776552
1.214226173937205,-0.006088428111007432
1.217004723534315,-0.003851863729178494
1.2197832731314255,0.009932462689374547
1.2225618227285358,0.024684444136667108
1.2253403723256462,0.029128756790620894
1.2281189219227564,0.019354740552610435
1.2308974715198666,0.0016120465410441199
1.233676021116977,-0.012156267114068822
1.2364545707140873,-0.012850264672364786
1.2392331203111977,-0.0007174078026873677
1.242011669908308,0.014824655422233142
1.2447902195054183,0.021920117639997398
1.2475687691025286,0.014749827135137974
1.2503473186996388,-0.0023088759939396187
1.2531258682967492,-0.01781073812577527
1.2559044178938594,-0.02142328878930315
1.2586829674909699,-0.011312124065110849
1.26146151708808,0.004548196468119116
1.2642400666851905,0.014074663398615224
1.2670186162823007,0.009713035478730337
1.269797165879411,-0.00616208974615284
1.2725757154765214,-0.022944303382120224
1.2753542650736316,-0.02937648189168552
1.278132814670742,-0.021597013248254738
1.2809113642678522,-0.005899739914214078
1.2836899138649627,0.0057651782733063595
1.2864684634620729,0.004333514558376952
1.289247013059183,-0.009893630185318181
1.2920255626562935,-0.027464736270565594
1.2948041122534037,-0.036533461487466154
1.2975826618505142,-0.0313260497038854
1.3003612114476244,0.9837319205136333
1.3031397610447348,-0.0028207681896738612
1.305918310641845,-0.0012882298145675854
1.3086968602389553,-0.013451828623811751
1.3114754098360657,-0.031296565508958506
1.314253959433176,-0.042739871565948204
1.3170325090302863,-0.0402678884993492
1.3198110586273966,-0.026306054615983475
1.322589608224507,-0.011485121483074637
1.3253681578216172,-0.0070420462728601335
1.3281467074187274,-0.016787574033683767
1.3309252570158379,-0.03438205256792443
1.333703806612948,-0.047866717513216236
1.3364823562100585,-0.04821150189005717
1.3392609058071687,-0.03576942750784343
1.3420394554042792,-0.020024003183460776
1.3448180050013894,-0.012810188709258364
1.3475965545984996,-0.019854554628017523
1.35037510419561,-0.036681700506397304
1.3531536537927202,-0.05181300893125576
1.3559322033898307,-0.054971277782155555
1.3587107529869409,-0.044426590008994224
1.3614893025840513,-0.028232620404539003
1.3642678521811615,-0.018469671953912824
1.3670464017782717,-0.02260949823717178
1.3698249513753822,-0.03817430506882142
1.3726035009724924,-0.054507657391361077
1.3753820505696028,-0.06039145380196217
1.378160600166713,-0.052064383514303134
1.3809391497638235,-0.03591030239189293
1.3837176993609337,-0.02389488686879757
1.386496248958044,-0.02501242878161014
1.3892747985551543,-0.038856570689840005
1.3920533481522646,-0.05591059643462616
1.394831897749375,-0.06434977839108456
1.3976104473464852,-0.05849348876897949
1.4003889969435956,-0.042865537059054375
1.4031675465407059,-0.028960419466983623
1.405946096137816,-0.02702695337345987
1.4087246457349265,-0.03874232465591356
1.4115031953320367,-0.05601311187627378
1.4142817449291472,-0.06676031087854607
1.4170602945262574,-0.06355324561212841
1.4198388441233678,-0.04892087763101525
1.422617393720478,-0.03354400988369608
1.4253959433175882,-0.028620590900308232
1.4281744929146987,-0.03786137181805496
1.4309530425118089,-0.05483739111034724
1.4337315921089193,-0.06757529518555068
1.4365101417060295,-0.06711577668003811
1.43928869130314,-0.05391759036163364
1.4420672409002502,-0.03752957973175947
1.4448457904973604,-0.029765148526087665
1.4476243400944708,-0.03625803972391925
1.450402889691581,-0.052435320093989234
1.4531814392886915,-0.0667860660815606
1.4559599888858017,-0.06908930643786167
1.4587385384829121,-0.05771991856801868
1.4615170880800223,-0.04081025085066295
1.4642956376771326,-0.03043714758513001
1.467074187274243,-0.03398946968771435
1.4698527368713532,-0.04888657549123099
1.4726312864684636,-0.06442297208088323
1.4754098360655739,-0.069420587189527
1.4781883856626843,-0.060218845924177235
1.4809669352597945,-0.04329127494554782
1.4837454848569047,-0.030618295070222037
1.4865240344540152,-0.03112371305103701
1.4893025840511254,-0.044296076592437755
1.4920811336482358,-0.06055432447543472
1.494859683245346,-0.06809636640300282
1.4976382328424565,-0.06133525292885273
1.5004167824395667,-0.04489279229546802
1.5031953320366769,-0.030295991562561
1.5059738816337873,-0.027737693677987344
1.5087524312308975,-0.03879087666961872
1.511530980828008,-0.055284406968348535
1.5143095304251182,-0.06514385418971357
1.5170880800222286,-0.061022374466235804
1.5198666296193388,-0.04555233871385091
1.522645179216449,-0.029463861266161177
1.5254237288135595,-0.02391509760651798
1.5282022784106697,-0.03251658601803824
1.5309808280077801,-0.048750604247541934
1.5337593776048903,-0.06063017545007683
1.5365379272020008,-0.05926748308344383
1.539316476799111,-0.04522702332607469
1.5420950263962212,-0.02812228503401003
1.5448735759933316,-0.019744248836763994
1.5476521255904419,-0.025633428784103428
1.5504306751875523,-0.04111972999523837
1.5532092247846625,-0.054660817365273985
1.555987774381773,-0.056092741605985805
1.5587663239788832,-0.04389530547712616
1.5615448735759934,-0.026278913138801728
1.5643234231731038,-0.015316026622173764
1.567101972770214,-0.018312042582951334
1.5698805223673244,-0.03258365469645282
1.5726590719644347,-0.04737710888643087
1.575437621561545,-0.05155518952327657
1.5782161711586553,-0.04155830711235063
1.5809947207557655,-0.023949131257370977
1.583773270352876,-0.010721874534821266
1.5865518199499862,-0.010729133746948647
1.5893303695470966,-0.023354350680285164
1.5921089191442068,-0.038952793957646205
1.5948874687413173,-0.04574584966506996
1.5976660183384275,-0.0382406071310228
1.6004445679355377,-0.021156450886390954
1.6032231175326481,-0.006051945236921982
1.6060016671297583,-0.0030631017861143216
1.6087802167268688,-0.013658485675168603
1.611558766323979,-0.029589783741934363
1.6143373159210894,-0.038787964478249615
1.6171158655181996,-0.03399047627246102
1.6198944151153098,-0.017932794332759367
1.6226729647124203,-0.001393417572606078
1.6254515143095305,0.004510255662174202
1.628230063906641,-0.0037317064460151393
1.6310086135037511,-0.019513194472500946
1.6337871631008616,-0.030834394096138067
1.6365657126979718,-0.02887952477064406
1.639344262295082,-0.014318644628834257
1.6421228118921924,0.003170985414246371
1.6449013614893027,0.01182185132621485
1.647679911086413,0.00618723943114325
1.6504584606835233,-0.00896579615631873
1.6532370102806337,-0.022064230753108392
1.656015559877744,-0.02300174996263679
1.6587941094748542,-0.010363032267107245
1.6615726590719646,0.0075642573285183935
1.6643512086690748,0.018713132067294264
1.6671297582661853,0.01586239304721374
1.6699083078632955,0.0017979872841033195
1.6726868574604057,-0.012678705325633706
1.6754654070575161,-0.016471986867799743
1.6782439566546263,-0.006123333538284545
1.6810225062517368,0.011716136417271563
1.683801055848847,0.02503953005684016
1.6865796054459574,0.025066335687644024
1.6893581550430676,0.012518374141988527
1.6921367046401778,-0.0028964812900359876
1.6949152542372883,-0.00942378104098783
1.6976938038343985,-0.001664859447259472
1.700472353431509,0.015563897267171948
1.7032509030286191,0.03067346586139079
1.7060294526257296,0.03358565849460506
1.7088080022228398,0.022936657308152236
1.71158655181995,0.007051551370256492
1.7143651014170604,-0.0020067192907210277
1.7171436510141707,0.002939780421078779
1.719922200611281,0.019052910564348356
1.7227007502083913,0.035506841958766355
1.7254792998055017,0.0412260153356797
1.728257849402612,0.03280160932333767
1.7310363989997222,0.01692785529127342
1.7338149485968326,0.005616730322795034
1.7365934981939428,0.007611548252719917
1.7393720477910533,0.022136982344591626
1.7421505973881635,0.03945298046479804
1.744929146985274,0.04781663635614452
1.7477076965823841,0.04187569723457628
1.7504862461794943,0.026494059569571973
1.7532647957766048,0.013274802899345198
1.756043345373715,0.01226608440020108
1.7588218949708254,0.024778490287354644
1.7616004445679356,0.042447974880464576
1.764378994165046,0.053214195146049116
1.7671575437621563,0.04994094935496875
1.7699360933592665,0.03551686221806957
1.772714642956377,0.020790365692058416
1.7754931925534871,0.01681504366231618
1.7782717421505976,0.026948339615676824
1.7810502917477078,0.04445144200788372
1.7838288413448182,0.05730594050905796
1.7866073909419284,0.05680432511141752
1.7893859405390387,0.043773871127218755
1.792164490136149,0.027985100136398773
1.7949430397332593,0.021167646906344127
1.7977215893303697,0.028625764928987066
1.80050013892748,0.04544667636768175
1.8032786885245904,0.0600120239653439
1.8060572381217006,0.062302452126179575
1.8088357877188108,0.05105923333216926
1.8116143373159213,0.03468383583054319
1.8143928869130315,0.025232425001188417
1.817171436510142,0.029798006739125686
1.8199499861072521,0.045440225033749664
1.8227285357043626,0.06128697579329517
1.8255070853014728,0.06630561116904943
1.828285634898583,0.05718890626027036
1.8310641844956934,0.040718928351636055
1.8338427340928036,0.028919123727916836
1.836621283689914,0.030459892575159908
1.8393998332870243,0.04446091536764599
1.8421783828841347,0.06112030501790944
1.844956932481245,0.06872086919688175
1.8477354820783551,0.0620054324074558
1.8505140316754656,0.04593456853135064
1.8532925812725758,0.03214073052303831
1.8560711308696862,0.030613352293660776
1.8588496804667964,0.04255838130791772
1.8616282300639069,0.05953622167337933
1.864406779661017,0.06949428284338796
1.8671853292581273,0.0653820903971988
1.8699638788552377,0.050190909513731743
1.872742428452348,0.03481557688695037
1.8755209780494584,0.030266895750804365
1.8782995276465686,0.039801145324038806
1.881078077243679,0.05659250228894749
1.8838566268407893,0.06861211884427564
1.8866351764378995,0.06722631033965573
1.88941372603501,0.053367899688953765
1.8921922756321201,0.03686946433737043
1.8949708252292305,0.029435078379024534
1.8977493748263408,0.036274322614056775
1.9005279244234512,0.05237854127238806
1.9033064740205614,0.06610106333889654
1.9060850236176716,0.06748225946312374
1.908863573214782,0.05536871446419339
1.9116421228118923,0.03823775716207132
1.9144206724090027,0.028137976621897393
1.917199222006113,0.03207702140818065
1.9199777716032234,0.04701265112877052
1.9227563212003336,0.06202741810339333
1.9255348707974438,0.06613252468006148
1.9283134203945542,0.05612268773589149
1.9310919699916644,0.03886738214886236
1.9338705195887749,0.02640069080836054
1.936649069185885,0.027319518205700742
1.9394276187829955,0.040638692735439984
1.9422061683801057,0.05649530785000211
1.944984717977216,0.06319884154574448
1.9477632675743264,0.05558765471773103
1.9505418171714366,0.03871867412249203
1.953320366768547,0.02425288810901371
1.9560989163656572,0.022120289359665396
1.9588774659627677,0.03342213274061701
1.961656015559878,0.04964394808371591
1.964434565156988,0.05874184337818235
1.9672131147540985,0.05375163122256181
1.9699916643512088,0.037767006626595157
1.9727702139483192,0.021728392948768258
1.9755487635454294,0.01660298064399793
1.9783273131425398,0.02554563817887308
1.98110586273965,0.04164404697364324
1.9838844123367603,0.052859829496941735
1.9866629619338707,0.05063377028158809
1.989441511530981,0.036004149526547374
1.9922200611280914,0.01886482689595423
1.9949986107252016,0.010893394371792004
1.997777160322312,0.01720432830058457
2.000555709919422,0.03269343664441677
2.0033342595165324,0.04568657694144437
2.0061128091136426,0.04628455472568511
2.0088913587107533,0.03343929968858085
2.0116699083078635,0.0157032948522726
2.0144484579049737,0.0051165694270285875
2.017227007502084,0.00860081018279797
2.020005557099194,0.02301204865170576
2.022784106696305,0.03738824497133434
2.025562656293415,0.040785203604345635
2.0283412058905252,0.030099737161931667
2.0311197554876355,0.012288109565419779
2.033898305084746,-0.0006059765707806218
2.0366768546818563,-5.987219207546912e-05
2.0394554042789665,0.012836364675778313
2.0422339538760768,0.028159445465798637
2.045012503473187,0.03424629057953081
2.0477910530702976,0.02603106734174661
2.050569602667408,0.008666542293366284
2.053348152264518,-0.006158781572904226
2.0561267018616283,-0.008575246056986192
2.0589052514587385,0.0024134862334806457
2.061683801055849,0.01821857438485506
2.0644623506529594,0.02680559316856994
2.0672409002500696,0.02129701924781
2.07001944984718,0.004888584056681095
2.0727979994442904,-0.011434697689331547
2.0755765490414007,-0.016750249600666782
2.078355098638511,-0.008005023846552333
2.081133648235621,0.007802519136751644
2.0839121978327313,0.0186252123633762
2.086690747429842,0.01597878108758167
2.089469297026952,0.0010066994798639886
2.0922478466240624,-0.016336832130073115
2.0950263962211726,-0.02440178473531748
2.097804945818283,-0.018169370533528326
2.1005834954153935,-0.0028391265241438563
2.1033620450125037,0.00988802215577108
2.106140594609614,0.010173866399975497
2.108919144206724,-0.0029244461369954096
2.1116976938038348,-0.020780139537456943
2.114476243400945,-0.03136287427015241
2.117254792998055,-0.027837667872113392
2.1200333425951654,-0.013450195026835435
2.1228118921922756,0.000793527291940108
2.1255904417893863,0.003994516972777029
2.1283689913864965,-0.006848306085079579
2.1311475409836067,-0.02469264605843812
2.133926090580717,-0.0374863274966918
2.136704640177827,-0.03678183738320266
2.139483189774938,-0.023774270215345637
2.142261739372048,-0.008446775371748982
2.145040288969158,-0.002434337968870229
2.1478188385662684,-0.010706836453098082
2.150597388163379,-0.028016296806417918
2.1533759377604893,-0.04264783308079842
2.1561544873575995,-0.04479311593480469
2.1589330369547097,-0.033561044883630445
2.16171158655182,-0.017614421729817014
2.1644901361489306,-0.008977533479145105
2.167268685746041,-0.014440961748256487
2.170047235343151,-0.030707429307392103
2.1728257849402612,-0.04674841485864789
2.1756043345373715,-0.05168703661822768
2.178382884134482,-0.04257254871781424
2.1811614337315923,-0.02648926919539761
2.1839399833287025,-0.01549248574030124
2.1867185329258128,-0.017991135191221343
2.1894970825229234,-0.03273688579559977
2.1922756321200336,-0.049716204159247046
2.195054181717144,-0.05730776082559072
2.197832731314254,-0.05058908748562562
2.2006112809113643,-0.0348549179921398
2.203389830508475,-0.021832316099491385
2.206168380105585,-0.02129800275079507
2.2089469297026953,-0.03408978653172653
2.2117254792998056,-0.05150750110799767
2.2145040288969158,-0.061531657443667384
2.2172825784940264,-0.057414741224214826
2.2200611280911366,-0.042504127867437375
2.222839677688247,-0.027849213347310275
2.225618227285357,-0.024303174967217112
2.2283967768824677,-0.034764994416118813
2.231175326479578,-0.05210711647634459
2.233953876076688,-0.06427004536281779
2.2367324256737984,-0.0628822800947603
2.2395109752709086,-0.0492440909648791
2.2422895248680192,-0.0333979558254953
2.2450680744651295,-0.026950104963993606
2.2478466240622397,-0.034774307861850935
2.25062517365935,-0.05152800450630151
2.25340372325646,-0.06547103779009529
2.2561822728535708,-0.06685737121767515
2.258960822450681,-0.05490142310849527
2.261739372047791,-0.0383395073541717
2.2645179216449014,-0.029185064987277277
2.267296471242012,-0.03414142403255171
2.2700750208391223,-0.04981021524942165
2.2728535704362325,-0.06512045054498221
2.2756321200333427,-0.06924196779788308
2.278410669630453,-0.05932674095506325
2.2811892192275636,-0.042544595528106605
2.283967768824674,-0.03095820758222897
2.286746318421784,-0.032900718047406394
2.289524868018894,-0.04701921184207725
2.2923034176160044,-0.06324176096467489
2.295081967213115,-0.06997679272600185
2.2978605168102253,0.9376012987236995
2.3006390664073355,-0.0458971778786363
2.3034176160044457,-0.03222469137348148
2.3061961656015564,-0.031095885579075094
2.3089747151986666,-0.04324361336298084
2.311753264795777,-0.05989512859900452
2.314531814392887,-0.0690428520517902
2.3173103639899972,-0.0640273908539506
2.320088913587108,-0.048297700900811445
2.322867463184218,-0.03294584562276129
2.3256460127813283,-0.02877849644277629
2.3284245623784385,-0.03859243711026044
2.3312031119755487,-0.05517551288115502
2.3339816615726594,-0.06646193865970268
2.3367602111697696,-0.0641569708250132
2.33953876076688,-0.04966605910120426
2.34231731036399,-0.033090342546560465
2.3450958599611007,-0.026006505375865154
2.347874409558211,-0.033191924985384466
2.350652959155321,-0.04920994578934104
2.3534315087524313,-0.062296112475603536
2.3562100583495416,-0.06276749743002046
2.358988607946652,-0.04994416605264917
2.3617671575437624,-0.032635342031665515
2.3645457071408726,-0.022842763364812745
2.367324256737983,-0.027182046943691793
2.370102806335093,-0.04215403857317815
2.3728813559322037,-0.056646169911462166
2.375659905529314,-0.05987586154234019
2.378438455126424,-0.04909805689229641
2.3812170047235344,-0.03156757010429148
2.3839955543206446,-0.01935356876423569
2.3867741039177552,-0.02071278000841914
2.3895526535148655,-0.03418782036830423
2.3923312031119757,-0.04964914131374654
2.395109752709086,-0.055535811571096244
2.3978883023061965,-0.047119451634713726
2.4006668519033068,-0.029884290475302916
2.403445401500417,-0.015607292280602914
2.406223951097527,-0.013940264069170642
2.4090025006946374,-0.02551102249198693
2.411781050291748,-0.04147488023184397
2.4145595998888583,-0.049837047758807373
2.4173381494859685,-0.04402672088332845
2.4201166990830787,-0.02759412784623288
2.422895248680189,-0.011673103901402321
2.4256737982772996,-0.007022935601327947
2.42845234787441,-0.01633793501014159
2.43123089747152,-0.03232183170273347
2.43400944706863,-0.04290339992304747
2.436787996665741,-0.039865209729312776
2.439566546262851,-0.024717702519562245
2.4423450958599613,-0.007619823298615616
2.4451236454570715,-0.00011773763236190907
2.4479021950541817,-0.006891971490674682
2.4506807446512924,-0.022412087839685464
2.4534592942484026,-0.034890124681109136
2.456237843845513,-0.03470689148206059
2.459016393442623,-0.0212880382629265
2.4617949430397332,-0.0035149083942253856
2.464573492636844,0.006623501096736966
2.467352042233954,0.002599916494975216
2.4701305918310643,-0.011985857259801056
2.4729091414281745,-0.025980381504539046
2.475687691025285,-0.0286493399764463
2.4784662406223954,-0.017350709327606805
2.4812447902195056,0.0005764100834122808
2.484023339816616,0.013057432545264626
2.486801889413726,0.011912831693694382
2.4895804390108367,-0.0012954898084298855
2.492358988607947,-0.016380968944753455
2.495137538205057,-0.02181402710199725
2.4979160878021673,-0.012963697959950575
2.5006946373992776,0.0045918468365802965
2.503473186996388,0.019052225903760333
2.5062517365934984,0.020829388800829598
2.5090302861906086,0.009400790752671832
2.511808835787719,-0.006317422449506353
2.5145873853848295,-0.014343970415444293
2.5173659349819397,-0.008196940557440316
2.52014448457905,0.008472637934763768
2.52292303417616,0.02449021027061489
2.5257015837732704,0.02914490147450842
2.528480133370381,0.019845286221535047
2.5312586829674912,0.003971407203306303
2.5340372325646014,-0.0064007737291919345
2.5368157821617117,-0.0031315486459479874
2.539594331758822,0.012163984767828043
2.5423728813559325,0.029270072326491255
2.5451514309530427,0.03667217187781306
2.547929980550153,0.02978719270688294
2.550708530147263,0.014239161187390072
2.553487079744374,0.0018388790949320569
2.556265629341484,0.002141300122026752
2.5590441789385943,0.01561538084650656
2.5618227285357045,0.03330857161401306
2.5646012781328147,0.04324576814581686
2.5673798277299253,0.038988777002781236
2.5701583773270356,0.024238020701991943
2.5729369269241458,0.010187200774997504
2.575715476521256,0.007521795980178506
2.578494026118366,0.018780839750134726
2.581272575715477,0.036541750296632834
2.584051125312587,0.048725690238969874
2.5868296749096973,0.047231204388376705
2.5896082245068075,0.03372484337324025
2.592386774103918,0.01844965681980336
2.5951653237010284,0.01290324088187535
2.5979438732981386,0.02161904484383958
2.600722422895249,0.038925628625293085
2.603500972492359,0.05300034207560149
2.6062795220894697,0.05431987116252991
2.60905807168658,0.0424672319237528
2.61183662128369,0.026429598123013265
2.6146151708808003,0.0181740766025168
2.6173937204779105,0.024093442506280455
2.620172270075021,0.04043639137220323
2.6229508196721314,0.05598874713178108
2.6257293692692416,0.06008910852422665
2.628507918866352,0.05024937953245997
2.6312864684634625,0.03393305688953651
2.6340650180605727,0.023220161392316873
2.636843567657683,0.026172300518073857
2.639622117254793,0.04107008380693282
2.6424006668519033,0.05764196531112071
2.645179216449014,0.06440614113747303
2.647957766046124,0.05687754088093392
2.6507363156432344,0.04077358582265907
2.6535148652403446,0.027927249827971422
2.656293414837455,0.02782875200002776
2.6590719644345655,0.04084184803484221
2.6618505140316757,0.05794369024743399
2.664629063628786,0.06717420341913355
2.667407613225896,0.06218498645945297
2.670186162823007,0.04677701656730097
2.672964712420117,0.03218362174732077
2.6757432620172272,0.02904084294718848
2.6785218116143374,0.039784741376644256
2.6813003612114477,0.056910027725355264
2.6840789108085583,0.0683347387263311
2.6868574604056685,0.06603631008426061
2.6896360100027787,0.05178601273364819
2.692414559599889,0.0358827985746656
2.695193109196999,0.029791598107916865
2.69797165879411,0.03794818767905666
2.70075020839122,0.054588477009044144
2.7035287579883303,0.06786863060064018
2.7063073075854405,0.06833097545399122
2.709085857182551,0.055664295501451515
2.7118644067796613,0.03892627924894682
2.7146429563767716,0.03006911587425236
2.7174215059738818,0.035396119804094905
2.720200055570992,0.05105615699869754
2.7229786051681026,0.06579644040660909
2.725757154765213,0.06900600654694691
2.728535704362323,0.0583004258236834
2.7313142539594333,0.041226223609173406
2.7340928035565435,0.02986669817764446
2.736871353153654,0.032204876907230034
2.7396499027507644,0.04641733776699501
2.7424284523478746,0.06217765141039786
2.745207001944985,0.06803774824662098
2.7479855515420955,0.05961103650895169
2.7507641011392057,0.042708008681949586
2.753542650736316,0.0291830163441551
2.756321200333426,0.028460923404173857
2.7590997499305363,0.040800354690135016
2.761878299527647,0.05710894489831329
2.764656849124757,0.06544264722117538
2.7674353987218674,0.059543419774776556
2.7702139483189776,0.043312583012269965
2.772992497916088,0.028022308691142965
2.7757710475131985,0.02425845773123773
2.7785495971103087,0.034353996671727643
2.781328146707419,0.050721558660000325
2.784106696304529,0.0612770281566639
2.7868852459016398,0.05807739094868186
2.78966379549875,0.04299854607711889
2.79244234509586,0.026394600585534098
2.7952208946929704,0.019696978177033798
2.7979994442900806,0.027243471524173377
2.8007779938871913,0.04317780140912947
2.8035565434843015,0.05563586629486174
2.8063350930814117,0.05522636649028265
2.809113642678522,0.04174388395456891
2.811892192275632,0.024315932971243414
2.814670741872743,0.014878870316750555
2.817449291469853,0.019646060165829704
2.8202278410669632,0.034666817880144314
2.8230063906640734,0.04865058317201022
2.825784940261184,0.051037613981140144
2.8285634898582943,0.039547298751989195
2.8313420394554045,0.02180858123720223
2.8341205890525147,0.009907076082579024
2.836899138649625,0.011746576742093114
2.8396776882467356,0.025399717878642106
2.842456237843846,0.04048591780662379
2.845234787440956,0.0455916526844421
2.8480133370380663,0.03642907772204237
2.8507918866351765,0.018901242944757476
2.853570436232287,0.0048828984718463225
2.8563489858293973,0.003732754005157348
2.8591275354265075,0.015604198003304787
2.8619060850236178,0.031335949667744376
2.864684634620728,0.039000805168819555
2.8674631842178386,0.032431458341291276
2.870241733814949,0.015629170541398188
2.873020283412059,-9.601141494168172e-05
2.8757988330091693,-0.00420932770013154
2.87857738260628,0.005518796715171798
2.88135593220339,0.021419371926746124
2.8841344818005004,0.03140692274110627
2.8869130313976106,0.02761845765837596
2.889691580994721,0.012034223900163916
2.8924701305918314,-0.004937446612760394
2.8952486801889417,-0.011899653599290282
2.898027229786052,-0.004613068383801195
2.900805779383162,0.010974133161495585
2.9035843289802723,0.02297832944367653
2.906362878577383,0.02207514764185088
2.909141428174493,0.00816481744095583
2.9119199777716034,-0.009556186393320065
2.9146985273687136,-0.01916842259030301
2.9174770769658243,-0.014549127971135068
2.9202556265629345,0.00025158231337547724
2.9230341761600447,0.013906050543533296
2.925812725757155,0.015906372726773272
2.928591275354265,0.0040757377678973085
2.9313698249513758,-0.01387526815575991
2.934148374548486,-0.0258598327834068
2.936926924145596,-0.024054199835697527
2.9397054737427064,-0.010489735154004726
2.9424840233398166,0.004399411186853693
2.9452625729369273,0.009234920886491745
2.9480411225340375,-0.00017218979818571338
2.9508196721311477,-0.017826978416887584
2.953598221728258,-0.031835419030466106
2.9563767713253686,-0.032905889640545374
2.959155320922479,-0.020990472636081364
2.961933870519589,-0.005318891340172249
2.964712420116699,0.0021991749231820047
2.9674909697138094,-0.004512603742560109
2.97026951931092,-0.02135356132912519
2.9730480689080303,-0.03697687100818682
2.9758266185051405,-0.04089991180742318
2.9786051681022507,-0.030996906834643283
2.981383717699361,-0.015018123023882123
2.9841622672964716,-0.00504971416080453
2.986940816893582,-0.008874291081473074
2.989719366490692,-0.02440765171861499
2.9924979160878022,-0.04118827595889691
2.995276465684913,-0.047854900007919296
2.998055015282023,-0.040267227819418334
3.0008335648791333,-0.024465125143028683
3.0036121144762435,-0.012351075323764015
3.0063906640733538,-0.013182061636576068
3.0091692136704644,-0.02695244738896152
3.0119477632675746,-0.04439774679510253
3.014726312864685,-0.05361659132796934
3.017504862461795,-0.04857753454450914
3.0202834120589053,-0.03343006279078229
3.023061961656016,-0.019538317348288158
3.025840511253126,-0.01735781259249878
3.0286190608502364,-0.02896164215583566
3.0313976104473466,-0.046558413456060085
3.0341761600444572,-0.058061285620067876
3.0369547096415674,-0.055727383139362825
3.0397332592386777,-0.041692164346635245
3.042511808835788,-0.026442798638084335
3.045290358432898,-0.02132177686040103
3.0480689080300087,-0.030419146586994836
3.050847457627119,-0.04764877267903487
3.053626007224229,-0.06109850137773146
3.0564045568213394,-0.06154474676511127
3.0591831064184496,-0.049045304684022344
3.0619616560155603,-0.032897875127108074
3.0647402056126705,-0.024993941210660574
3.0675187552097807,-0.03131862759147812
3.070297304806891,-0.04767240823582382
3.0730758544040016,-0.06267277110678278
3.0758544040011118,-0.06589026098824272
3.078632953598222,-0.05530328711253473
3.081411503195332,-0.03874302666087981
3.0841900527924424,-0.028295612499209123
3.086968602389553,-0.03166290075304731
3.0897471519866633,-0.04665710973188085
3.0925257015837735,-0.06276454203255839
3.0953042511808837,-0.06866064707386571
3.098082800777994,-0.06030468512922206
3.1008613503751046,-0.0438279569090994
3.103639899972215,-0.03115110287745807
3.106418449569325,-0.03146321061105724
3.109196999166435,-0.04465343285038837
3.111975548763546,-0.06139017144953876
3.114754098360656,-0.06979122685139709
3.1175326479577663,-0.06391711487191887
3.1203111975548765,-0.04801655930833367
3.1230897471519867,-0.033489497931619094
3.1258682967490974,-0.030738433984224964
3.1286468463462076,-0.041732757074126055
3.131425395943318,-0.05860102945926361
3.134203945540428,-0.06925746629298157
3.1369824951375382,-0.0660408225078482
3.139761044734649,-0.05119064186154862
3.142539594331759,-0.03524646552339362
3.1453181439288693,-0.0295142399860216
3.1480966935259795,-0.03798490811686216
3.15087524312309,-0.054481744631366714
3.1536537927202004,-0.06707551004610882
3.1564323423173106,-0.06661148733266306
3.159210891914421,-0.05325330690661732
3.161989441511531,-0.03636605796405523
3.1647679911086417,-0.027822237718568277
3.167546540705752,-0.033515421290701335
3.170325090302862,-0.04914764966377452
3.1731036398999724,-0.06330169521143333
3.1758821894970826,-0.0656021606891164
3.178660739094193,-0.054131888194416514
3.1814392886913034,-0.03680245628506536
3.1842178382884136,-0.025699138918581426
3.186996387885524,-0.028442528643576905
3.1897749374826345,-0.04274150385554957
3.1925534870797447,-0.05803105896467406
3.195332036676855,-0.06302428245097884
3.198110586273965,-0.05378035669024432
3.2008891358710754,-0.03652160297358628
3.203667685468186,-0.023185958262792076
3.2064462350652962,-0.022893956813061198
3.2092247846624065,-0.03542958663931949
3.2120033342595167,-0.051394880491878084
3.214781883856627,-0.058927740200572606
3.2175604334537375,-0.05218111824780619
3.2203389830508478,-0.03550266877985818
3.223117532647958,-0.020327268845571556
3.225896082245068,-0.017003624124328345
3.228674631842179,-0.02739727111887756
3.231453181439289,-0.04355732245784339
3.2342317310363993,-0.053399960748298114
3.2370102806335095,-0.04934614044170733
3.2397888302306197,-0.033739300186287464
3.2425673798277304,-0.017170524760597612
3.2453459294248406,-0.010908324552065293
3.248124479021951,-0.018844198169605714
3.250903028619061,-0.034711260206758215
3.253681578216171,-0.04656404865554717
3.256460127813282,-0.04531736204573436
3.259238677410392,-0.03124059691061589
3.2620172270075023,-0.01376545700206921
3.2647957766046125,-0.0047444828787051654
3.267574326201723,-0.009979179923014836
3.2703528757988334,-0.025073407500293805
3.2731314253959436,-0.03857601126481679
3.275909974993054,-0.04016635650970606
3.278688524590164,-0.028031773395589023
3.2814670741872747,-0.010163543299307385
3.284245623784385,0.0013549401078999414
3.287024173381495,-0.0010149662028227577
3.2898027229786053,-0.014878865294600375
3.2925812725757155,-0.029621133748859142
3.295359822172826,-0.03399323985938553
3.2981383717699364,-0.024154464552887694
3.3009169213670466,0.9935824527480279
3.303695470964157,0.007263320989947107
3.3064740205612675,0.007836991360654933
3.3092525701583777,-0.004375234386711313
3.312031119755488,-0.0199095902179537
3.314809669352598,-0.026924833222220064
3.3175882189497083,-0.019666643958251413
3.320366768546819,-0.0025811174628960617
3.323145318143929,0.012862963416462654
3.3259238677410394,0.016371645210982378
3.3287024173381496,0.006183556642732455
3.33148096693526,-0.009671397359417935
3.3342595165323705,-0.019112110135136424
3.3370380661294807,-0.014642132058555872
3.339816615726591,0.0012915665325018972
3.342595165323701,0.018047352358519432
3.3453737149208114,0.024395201248380127
3.348152264517922,0.01654355016404362
3.3509308141150322,0.000849165132030749
3.3537093637121425,-0.010726978373806387
3.3564879133092527,-0.009169682518289845
3.3592664629063633,0.005146117706728922
3.3620450125034735,0.022723032646013715
3.3648235621005838,0.03172959427507557
3.367602111697694,0.026457024437549336
3.370380661294804,0.01139952843263272
3.373159210891915,-0.0019584647087973143
3.375937760489025,-0.003351646322654795
3.3787163100861353,0.00892825242679732
3.3814948596832455,0.026811083617920742
3.3842734092803557,0.03821648403485772
3.3870519588774664,0.0356885660354884
3.3898305084745766,0.021725052785258533
3.392609058071687,0.006991611788156708
3.395387607668797,0.00269777465156262
3.3981661572659076,0.012584107639442624
3.400944706863018,0.030248174069133403
3.403723256460128,0.04372068089382834
3.4065018060572383,0.04402079690552335
3.4092803556543485,0.03157533279889772
3.412058905251459,0.01591337699552188
3.4148374548485694,0.008854660538136636
3.4176160044456796,0.016060582818470018
3.42039455404279,0.03298719389571591
3.4231731036399,0.04813292683120374
3.4259516532370107,0.051259613066119716
3.428730202834121,0.040710429497291256
3.431508752431231,0.024593935794611083
3.4342873020283413,0.014987856565522938
3.437065851625452,0.019305723599264996
3.439844401222562,0.03499747056878266
3.4426229508196724,0.051371975650256196
3.4454015004167826,0.0572388054235002
3.448180050013893,0.04890686980912726
3.4509585996110035,0.032822579103950505
3.4537371492081137,0.02096175829618822
3.456515698805224,0.022269161400625667
3.459294248402334,0.03626458947472616
3.4620727979994443,0.05338593565700746
3.464851347596555,0.06182394998747114
3.467629897193665,0.05596325941879057
3.4704084467907754,0.04039603314068355
3.4731869963878856,0.026639340132365526
3.4759655459849963,0.024902619730714566
3.4787440955821065,0.03678984695260672
3.4815226451792167,0.054152857945638275
3.484301194776327,0.06491547437416015
3.487079744373437,0.06170536418516969
3.489858293970548,0.047123616590885514
3.492636843567658,0.03188535857473679
3.4954153931647682,0.027160493440960914
3.4981939427618784,0.036589373289497434
3.5009724923589887,0.05368057332589001
3.5037510419560993,0.06645082937908639
3.5065295915532095,0.06599052845652212
3.5093081411503197,0.05283217133573904
3.51208669074743,0.036569653670894334
3.5148652403445406,0.02900050211380508
3.517643789941651,0.03569296980427639
3.520422339538761,0.052005800292826886
3.5232008891358713,0.06640571798890288
3.5259794387329815,0.06871131522976143
3.528757988330092,0.05737063593398132
3.5315365379272023,0.04057046591676364
3.5343150875243126,0.030384413260893934
3.5370936371214228,0.034142709318686446
3.539872186718533,0.04919256475954096
3.5426507363156436,0.06479435883777744
3.545429285912754,0.06979827279469152
3.548207835509864,0.06061413816599755
3.5509863851069743,0.043777681830134585
3.553764934704085,0.03127882530274452
3.556543484301195,0.031991352699430126
3.5593220338983054,0.0453299890776078
3.5621005834954156,0.061668786144466727
3.564879133092526,0.06922175475595972
3.5676576826896365,0.0624674934655305
3.5704362322867467,0.04609591969850393
3.573214781883857,0.03165599464681744
3.575993331480967,0.029300635734314684
3.5787718810780773,0.040529522735179
3.581550430675188,0.05711721292365953
3.584328980272298,0.06699274455584073
3.5871075298694084,0.06286800976954401
3.5898860794665186,0.04744736774720875
3.5926646290636293,0.031494685830009105
3.5954431786607395,0.026139480416062028
3.5982217282578497,0.034921699691841834
3.60100027785496,0.051261508096444815
3.60377882745207,0.06316266119274902
3.606557377049181,0.06178751588278714
3.609335926646291,0.04777429024244389
3.612114476243401,0.030781018889885062
3.6148930258405114,0.022582182841359672
3.6176715754376216,0.028652517293936475
3.6204501250347323,0.044253860408297326
3.6232286746318425,0.057822149069475415
3.6260072242289527,0.05923354947547096
3.628785773826063,0.04704112282800964
3.6315643234231736,0.02950928410793692
3.634342873020284,0.01870662653492243
3.637121422617394,0.02187953890595039
3.6398999722145042,0.036272722222249434
3.6426785218116144,0.05109888111810859
3.645457071408725,0.055249661831726894
3.6482356210058353,0.04523608661041058
3.6510141706029455,0.027682691235681078
3.6537927202000557,0.014592565267062763
3.656571269797166,0.014767826665716393
3.6593498193942766,0.0275181437773539
3.662128368991387,0.04315442984144781
3.664906918588497,0.049914818904210775
3.6676854681856073,0.04237226099580958
3.670464017782718,0.02531401844679844
3.673242567379828,0.010320013575950297
3.6760211169769383,0.007485812081335311
3.6787996665740486,0.018206622950126913
3.6815782161711588,0.03418028500774391
3.6843567657682694,0.04334190152105692
3.6871353153653796,0.03848806781441636
3.68991386496249,0.022426125693612024
3.6926924145596,0.005967776487904178
3.6954709641567103,0.0002012105775017342
3.698249513753821,0.008565606578764576
3.701028063350931,0.024393118797698746
3.7038066129480414,0.03567533111946153
3.7065851625451516,0.033647133547099445
3.7093637121422622,0.019052297976536688
3.7121422617393725,0.0016121426262005467
3.7149208113364827,-0.006922918309474611
3.717699360933593,-0.0011722132485868283
3.720477910530703,0.01402941864468562
3.7232564601278137,0.027087870515537987
3.726035009724924,0.027937512139462942
3.728813559322034,0.015236386306009639
3.7315921089191444,-0.0026742427034973865
3.7343706585162546,-0.013731870397287432
3.7371492081133653,-0.01077466103285074
3.7399277577104755,0.003339624315784454
3.7427063073075857,0.01777667133611575
3.745484856904696,0.02147026754562563
3.7482634065018066,0.011032717838521782
3.7510419560989168,-0.006823315479845757
3.753820505696027,-0.02008267063598512
3.756599055293137,-0.020015751297039003
3.7593776048902474,-0.00741808147900376
3.762156154487358,0.00795866022874467
3.7649347040844683,0.014377432341430647
3.7677132536815785,0.006505751743404547
3.7704918032786887,-0.010772340369285784
3.773270352875799,-0.025847047202795105
3.7760489024729096,-0.02868113128167407
3.77882745207002,-0.01798417082505536
3.78160600166713,-0.0021346257372067048
3.7843845512642402,0.006809376013957787
3.787163100861351,0.0017294636902499393
3.789941650458461,-0.014464472789600556
3.7927202000555713,-0.030913944904121683
3.7954987496526815,-0.036573158440177764
3.7982772992497917,-0.028104193862084847
3.8010558488469024,-0.012262628477819136
3.8038343984440126,-0.0010683666161388841
3.806612948041123,-0.0032135507215615214
3.809391497638233,-0.017849146949709134
3.8121700472353433,-0.03519153108754197
3.814948596832454,-0.043515489552624735
3.817727146429564,-0.037535064288823514
3.8205056960266743,-0.022181644677936617
3.8232842456237845,-0.009078740436207742
3.8260627952208948,-0.008233254949269759
3.8288413448180054,-0.02088230633501795
3.8316198944151156,-0.038608662270065826
3.834398444012226,-0.049357072624028275
3.837176993609336,-0.04605104765255074
3.8399555432064467,-0.031650840607413876
3.842734092803557,-0.017037207572631302
3.845512642400667,-0.01323362530260485
3.8482911919977774,-0.023526497168279384
3.8510697415948876,-0.04111579503911572
3.8538482911919982,-0.05397544972494095
3.8566268407891084,-0.05344930092988544
3.8594053903862187,-0.040438253511969266
3.862183939983329,-0.024756083685097942
3.864962489580439,-0.01811436261462881
3.8677410391775497,-0.025750848236652708
3.87051958877466,-0.04268534003770538
3.87329813837177,-0.057279298078517824
3.8760766879688804,-0.05955482380921475
3.878855237565991,-0.048326625972469964
3.8816337871631013,-0.03204906876834208
3.8844123367602115,-0.02277283546273125
3.8871908863573217,-0.027530962077476462
3.889969435954432,-0.043311472578540025
3.8927479855515426,-0.05921015745858199
3.8955265351486528,-0.06422469760076005
3.898305084745763,-0.05511892251533707
3.901083634342873,-0.038735860246848
3.9038621839399834,-0.027106219479525764
3.906640733537094,-0.02884874284875477
3.9094192831342043,-0.043009427244256854
3.9121978327313145,-0.059743313760601005
3.9149763823284247,-0.06735150641009971
3.9177549319255354,-0.060643384638965035
3.9205334815226456,-0.04464673104373885
3.923312031119756,-0.031013788732700668
3.926090580716866,-0.029692185315102898
3.928869130313976,-0.04181431636201209
3.931647679911087,-0.05888783084495442
3.934426229508197,-0.06886585661014627
3.9372047791053073,-0.06475799114918163
3.9399833287024175,-0.04962695326424375
3.9427618782995277,-0.03439930748047014
3.9455404278966384,-0.030055147342316568
3.9483189774937486,-0.03977952317839518
3.951097527090859,-0.05668574482902609
3.953876076687969,-0.06873793416223051
3.9566546262850797,-0.0673542050141318
3.95943317588219,-0.053540949283815385
3.9622117254793,-0.037173464121187265
3.9649902750764103,-0.029937125243133366
3.9677688246735205,-0.036974729647888324
3.970547374270631,-0.05321045633501766
3.9733259238677414,-0.0669780643395945
3.9761044734648516,-0.06835990550359218
3.978883023061962,-0.05627605641094921
3.981661572659072,-0.03925628412031496
3.9844401222561827,-0.029343047420093547
3.987218671853293,-0.03348364579267931
3.989997221450403,-0.04856437622527078
3.9927757710475134,-0.06363626423040714
3.995554320644624,-0.06774142472500376
3.9983328702417342,-0.05774579885488882
4.001111419838844,-0.04057945534646418
4.003889969435955,-0.028283097206618136
4.006668519033065,-0.0294015124641689
4.009447068630175,-0.04287589856420878
4.012225618227285,-0.058800804356426165
4.015004167824396,-0.06550463028703442
4.017782717421507,-0.057892571328290204
4.020561267018617,-0.04108849776584967
4.023339816615727,-0.026772570835772783
4.026118366212837,-0.024832451980135554
4.0288969158099475,-0.036295790478110566
4.031675465407058,-0.052595821151249035
4.034454015004168,-0.061695020124420796
4.037232564601278,-0.05668965202633514
4.040011114198388,-0.04074470996332133
4.042789663795499,-0.024831771303944327
4.04556821339261,-0.019886741533763467
4.04834676298972,-0.028993101856262436
4.05112531258683,-0.04517804622999874
4.05390386218394,-0.05639682086950462
4.0566824117810505,-0.054142478635522906
4.059460961378161,-0.039526827551018356
4.062239510975271,-0.02248593378580859
4.065018060572381,-0.014678082548878143
4.067796610169492,-0.021150708140588725
4.0705751597666024,-0.03673274071744034
4.073353709363713,-0.04973110688852239
4.076132258960823,-0.05028913905083361
4.078910808557933,-0.03743233320266574
4.081689358155043,-0.019765173436856985
4.0844679077521535,-0.00932093542624541
4.087246457349264,-0.01296060656564093
4.090025006946374,-0.027468942803866976
4.092803556543485,-0.04185298253253012
4.095582106140595,-0.0452000481661291
4.0983606557377055,-0.034478364756766716
4.101139205334816,-0.01670444211702756
4.103917754931926,-0.003927983583150576
4.106696304529036,-0.00461909000637702
4.109474854126146,-0.0176141536558471
4.1122534037232565,-0.03294789460656891
4.115031953320367,-0.038976802943289576
4.117810502917477,-0.03070217644497994
4.120589052514588,-0.01334347698998229
4.123367602111698,0.0013922164252360356
4.1261461517088085,0.0036780769695786125
4.128924701305919,-0.0074086003920631254
4.131703250903029,-0.023227164881916833
4.134481800500139,-0.03175022941217435
4.137260350097249,-0.02616111863810742
4.14003889969436,-0.009726721275159184
4.14281744929147,0.006537350317020473
4.145595998888581,0.011740358109110236
4.148374548485691,0.002900775294093808
4.151153098082801,-0.012922853051364199
4.1539316476799115,-0.02367765673286045
4.156710197277022,-0.02093211331731396
4.159488746874132,-0.005903195796308382
4.162267296471242,0.011413188021769152
4.165045846068352,0.019386905820205063
4.167824395665463,0.013066448359263924
4.170602945262574,-0.00228207830088973
4.173381494859684,-0.014939474379101971
4.176160044456794,-0.015110615474786569
4.178938594053904,-0.0019262994822677034
4.1817171436510145,0.015935123166661083
4.184495693248125,0.0264506750796252
4.187274242845235,0.022846405127443625
4.190052792442345,0.008439057840619235
4.192831342039455,-0.005735048299400816
4.195609891636566,-0.008809064482523662
4.198388441233677,0.0021464823102794878
4.201166990830787,0.020029391465661576
4.203945540427897,0.03278209568598503
4.206724090025007,0.032010047389945305
4.209502639622118,0.01898179390444426
4.212281189219228,0.003721909977052292
4.215059738816338,-0.002154843759487445
4.217838288413448,0.006253980857211298
4.220616838010558,0.023633959671633557
4.2233953876076695,0.03825222145478216
4.22617393720478,0.04034375802437905
4.22895248680189,0.0290911158418611
4.231731036399,0.013208411416305521
4.23450958599611,0.004712218589912512
4.237288135593221,0.010331874619820294
4.240066685190331,0.026699086704590726
4.242845234787441,0.04275529058832861
4.245623784384551,0.04765599031931432
4.248402333981662,0.03852208639058528
4.2511808835787726,0.02249757162852819
4.253959433175883,0.011642761520391724
4.256737982772993,0.014313359219394941
4.259516532370103,0.029187567870983488
4.262295081967213,0.046210648446988606
4.265073631564324,0.05378175674593944
4.267852181161434,0.04704593509921534
4.270630730758544,0.031364173814560206
4.273409280355654,0.018481155347446033
4.276187829952765,0.018129963632415143
4.278966379549876,0.031074681472513643
4.281744929146986,0.04856400180407258
4.284523478744096,0.05858640958760741
4.287302028341206,0.05445575348478027
4.290080577938316,0.03959027245806233
4.292859127535427,0.025069046804265957
4.295637677132537,0.02171251349720956
4.298416226729647,0.03234786434042905
4.301194776326758,1.049787991877966
4.303973325923868,0.061968625151746524
4.306751875520979,0.06057164970002714
4.309530425118089,0.04697069455562357
4.312308974715199,0.031249102669113613
4.315087524312309,0.024992235947520917
4.3178660739094195,0.0330061487431115
4.32064462350653,0.049882091495010016
4.32342317310364,0.06386252470939308
4.32620172270075,0.06524523081062644
4.328980272297861,0.05331829577856412
4.331758821894971,0.03686886134075046
4.334537371492082,0.02790199358280805
4.337315921089192,0.03305939757019951
4.340094470686302,0.04887184915597776
4.342873020283412,0.06423888824667814
4.3456515698805225,0.06836329797072581
4.348430119477633,0.058468833353470626
4.351208669074743,0.04178459555311879
4.353987218671854,0.030377628308214853
4.356765768268964,0.03252737762079405
4.359544317866074,0.04680751909626299
4.362322867463185,0.06310544094631806
4.365101417060295,0.06985065998703867
4.367879966657405,0.06228532556472312
4.370658516254515,0.04586508573308855
4.3734370658516255,0.0323593890983793
4.376215615448736,0.03143871219449826
4.378994165045847,0.04376213122722596
4.381772714642957,0.06050621640401347
4.384551264240067,0.06967199344453306
4.3873298138371775,0.06466177945128497
4.390108363434288,0.04899520249893427
4.392886913031398,0.033793411531136686
4.395665462628508,0.02982975403652953
4.398444012225618,0.03982906775666741
4.4012225618227285,0.05652002428292085
4.404001111419839,0.06783270213237402
4.40677966101695,0.06552618322102532
4.40955821061406,0.05107919858050862
4.41233676021117,0.03463321146412099
4.4151153098082805,0.027743418105735593
4.417893859405391,0.03511922400772471
4.420672409002501,0.05125807279469957
4.423450958599611,0.06437875430716322
4.426229508196721,0.06484267777760383
4.4290080577938316,0.05204361504635393
4.431786607390943,0.03484115073658543
4.434565156988053,0.02522801074977825
4.437343706585163,0.02975783925247672
4.440122256182273,0.04486081747807023
4.4429008057793835,0.05939550267948899
4.445679355376494,0.06261284210064129
4.448457904973604,0.051839714097016744
4.451236454570714,0.034389829492045526
4.454015004167824,0.02233608785816289
4.4567935537649355,0.023881089090679583
4.459572103362046,0.0374941266852083
4.462350652959156,0.053005518212443016
4.465129202556266,0.058876049522393545
4.467907752153376,0.0504453606973452
4.4706863017504865,0.03326335782040934
4.473464851347597,0.01912336962951119
4.476243400944707,0.01763253395287898
4.479021950541817,0.029344870506314895
4.481800500138927,0.045365494184385804
4.4845790497360385,0.053708875626244185
4.487357599333149,0.047866287762033825
4.490136148930259,0.03145845905591859
4.492914698527369,0.015647733968827064
4.495693248124479,0.011159518687199364
4.49847179772159,0.0206160531644013
4.5012503473187,0.03666230082360203
4.50402889691581,0.047223562934969314
4.50680744651292,0.04413669419400453
4.509585996110031,0.028985358334500916
4.5123645457071415,0.011968304475366098
4.515143095304252,0.004609615972958218
4.517921644901362,0.011521618881749452
4.520700194498472,0.02710829254109986
4.523478744095582,0.03956557211296843
4.526257293692693,0.03931914144979713
4.529035843289803,0.025868412954711373
4.531814392886913,0.008144642752268094
4.534592942484024,-0.0018727983633593168
4.537371492081134,0.002281067638677763
4.5401500416782445,0.016935988800129777
4.542928591275355,0.030910273421261316
4.545707140872465,0.033503732058359936
4.548485690469575,0.022146445685849198
4.551264240066685,0.00423604862425593
4.554042789663796,-0.008149756961971687
4.556821339260906,-0.006885980007196719
4.559599888858016,0.0063922654696406955
4.562378438455127,0.02145885499021708
4.565156988052237,0.02680657218731785
4.567935537649348,0.01787274835544374
4.570714087246458,0.0003009660375943267
4.573492636843568,-0.014092627183839674
4.576271186440678,-0.015765130815298428
4.579049736037788,-0.004267794294916691
4.581828285634899,0.011433545492321978
4.584606835232009,0.019367539436864676
4.58738538482912,0.013114730698070395
4.59016393442623,-0.0036035128339303064
4.59294248402334,-0.0195846902447825
4.595721033620451,-0.024152345796188402
4.598499583217561,-0.014787232329349
4.601278132814671,0.0010722674296118756
4.604056682411781,0.011347396025011877
4.6068352320088914,0.00795319837770924
4.609613781606002,-0.007422057240167371
4.612392331203113,-0.024523323293589014
4.615170880800223,-0.03185872049513268
4.617949430397333,-0.024913569443079542
4.620727979994443,-0.009377147019311239
4.623506529591554,0.0029243058804390744
4.626285079188664,0.0024812540754363815
4.629063628785774,-0.01110143678278925
4.631842178382884,-0.028821747232031344
4.6346207279799945,-0.038714804082687515
4.637399277577105,-0.034405019739143165
4.640177827174216,-0.019663033261105863
4.642956376771326,-0.0057101686414993864
4.645734926368436,-0.003197173711307469
4.648513475965546,-0.0145908076390147
4.651292025562657,-0.03241031632025793
4.654070575159767,-0.044574356671672935
4.656849124756877,-0.04303640819931685
4.659627674353987,-0.029536111639810157
4.6624062239510975,-0.014355499158343131
4.665184773548209,-0.008969158292363753
4.667963323145319,-0.01784196545803333
4.670741872742429,-0.03523733896634457
4.673520422339539,-0.04931746063521264
4.6762989719366495,-0.050604642833926024
4.67907752153376,-0.038755687130216585
4.68185607113087,-0.02280694808645822
4.68463462072798,-0.014714931618816231
4.68741317032509,-0.020809584488942025
4.690191719922201,-0.03726943217310702
4.692970269519312,-0.0528529199702531
4.695748819116422,-0.056933604905437224
4.698527368713532,-0.047095673003359345
4.701305918310642,-0.03086053430775858
4.7040844679077525,-0.0203103319936801
4.706863017504863,-0.023451461516551798
4.709641567101973,-0.03849142453729979
4.712420116699083,-0.05511990141155593
4.715198666296193,-0.061878336441479304
4.717977215893304,-0.05435028362749361
4.720755765490415,-0.03831808407784349
4.723534315087525,-0.025629493790123616
4.726312864684635,-0.02572878109353997
4.729091414281745,-0.038905834128350775
4.7318699638788555,-0.05608879150038959
4.734648513475966,-0.06532842302329708
4.737427063073076,-0.06033924918523028
4.740205612670186,-0.04499223872251067
4.742984162267297,-0.03054772071204834
4.7457627118644075,-0.02760641546825825
4.748541261461518,-0.03853195771802294
4.751319811058628,-0.05576126458383758
4.754098360655738,-0.06721049115701228
4.756876910252848,-0.06491241661036434
4.7596554598499585,-0.050711289169814905
4.762434009447069,-0.03494447581248551
4.765212559044179,-0.02905326866173558
4.767991108641289,-0.03740461644098288
4.7707696582384,-0.05416957720184801
4.7735482078355105,-0.06748976282936944
4.776326757432621,-0.06795361619150597
4.779105307029731,-0.05532370932424774
4.781883856626841,-0.03870641475162308
4.784662406223951,-0.03004266952518443
4.7874409558210616,-0.035572609846413
4.790219505418172,-0.05137512396430179
4.792998055015282,-0.06617063448889336
4.795776604612393,-0.06938369167023227
4.798555154209503,-0.05870226571748641
4.8013337038066135,-0.04173038389908311
4.804112253403724,-0.03055281351927179
4.806890803000834,-0.03309693531949917
4.809669352597944,-0.04746630831737933
4.812447902195054,-0.06329627301769292
4.815226451792165,-0.06916261280671687
4.818005001389275,-0.060747589682029424
4.820783550986386,-0.04392630208620798
4.823562100583496,-0.03056724762825272
4.826340650180606,-0.030048832938404053
4.8291191997777165,-0.042555798081821306
4.831897749374827,-0.05894724659407566
4.834676298971937,-0.06729061274640692
4.837454848569047,-0.061391110308275765
4.840233398166157,-0.045219844260182565
4.843011947763268,-0.0300753874976635
4.845790497360378,-0.026507716978632065
4.848569046957489,-0.036777249908504055
4.851347596554599,-0.05323923302211514
4.854126146151709,-0.0638083174870292
4.85690469574882,-0.060597261390647576
4.85968324534593,-0.04555484708507121
4.86246179494304,-0.02907305080907978
4.86524034454015,-0.022559054535698175
4.86801889413726,-0.03028159850133521
4.870797443734371,-0.04631987147313639
4.873575993331482,-0.05879586065961287
4.876354542928592,-0.05836489308673437
4.879133092525702,-0.04489536071058044
4.881911642122812,-0.027562986319040184
4.884690191719923,-0.018292249219194232
4.887468741317033,-0.023233015343595752
4.890247290914143,-0.038364845038483766
4.893025840511253,-0.05237100301683027
4.895804390108363,-0.05472783867152509
4.8985829397054745,-0.043227277450697134
4.901361489302585,-0.025555374116211234
4.904140038899695,-0.013798583739489213
4.906918588496805,-0.01580464755445006
4.909697138093915,-0.02957330048024725
4.912475687691026,-0.044686301773597906
4.915254237288136,-0.04975460806753977
4.918032786885246,-0.04055947687431987
4.920811336482356,-0.023068269692734164
4.9235898860794665,-0.009169269671052152
4.926368435676578,-0.008174250306770613
4.929146985273688,-0.020162727606454208
4.931925534870798,-0.03592539958497779
4.934704084467908,-0.04354720221970332
4.937482634065018,-0.036924437628946524
4.940261183662129,-0.020127962552440145
4.943039733259239,-0.004493645979929982
4.945818282856349,-0.0005198259523734733
4.948596832453459,-0.010363433390211344
4.95137538205057,-0.026298525819890402
4.954153931647681,-0.036239065271829754
4.956932481244791,-0.032378278952273895
4.959711030841901,-0.016769219422176473
4.962489580439011,0.00014243967791602308
4.965268130036121,0.006984620290624308
4.968046679633232,-0.0004127549942908454
4.970825229230342,-0.016037323286129113
4.973603778827452,-0.027992214278904252
4.976382328424563,-0.02700020896760738
4.979160878021673,-0.013035382781130709
4.981939427618784,0.00465804105272385
4.984717977215894,0.014173104367439657
4.987496526813004,0.00945083895131844
4.990275076410114,-0.005389131136106458
4.9930536260072245,-0.018993608239469512
4.995832175604335,-0.02089137214817371
4.998610725201445,-0.008978297417545533
5.001389274798555,0.008978297417547802
5.004167824395666,0.020891372148175782
5.006946373992776,0.01899360823946819
5.009724923589887,0.005389131136099477
5.012503473186997,-0.009450838951323329
5.015282022784107,-0.01417310436743921
5.018060572381217,-0.004658041052717729
5.0208391219783275,0.013035382781137528
5.023617671575438,0.02700020896761062
5.026396221172548,0.027992214278904907
5.029174770769659,0.01603732328612674
5.031953320366769,0.00041275499428514856
5.0347318699638794,-0.006984620290624716
5.03751041956099,-0.00014243967791392753
5.0402889691581,0.01676921942218386
5.04306751875521,0.03237827895227821
5.04584606835232,0.03623906527182806
5.0486246179494305,0.026298525819888174
5.051403167546541,0.01036343339021291
5.054181717143652,0.0005198259523718357
5.056960266740762,0.004493645979934343
5.059738816337872,0.020127962552442997
5.0625173659349825,0.036924437628951465
5.065295915532093,0.04354720221970283
5.068074465129203,0.03592539958497204
5.070853014726313,0.020162727606451818
5.073631564323423,0.008174250306767793
5.0764101139205335,0.009169269671053172
5.079188663517644,0.02306826969273222
5.081967213114755,0.040559476874322216
5.084745762711865,0.04975460806754052
5.087524312308975,0.04468630177359294
5.0903028619060855,0.029573300480240226
5.093081411503196,0.015804647554448707
5.095859961100306,0.01379858373949129
5.098638510697416,0.025555374116217958
5.101417060294526,0.043227277450699694
5.104195609891637,0.05472783867152453
5.106974159488748,0.05237100301682622
5.109752709085858,0.03836484503847672
5.112531258682968,0.02323301534359084
5.115309808280078,0.01829224921919463
5.1180883578771885,0.027562986319046266
5.120866907474299,0.044895360710587515
5.123645457071409,0.058364893086735606
5.126424006668519,0.05879586065960987
5.129202556265629,0.04631987147313373
5.1319811058627405,0.030281598501329467
5.134759655459851,0.022559054535697735
5.137538205056961,0.02907305080908179
5.140316754654071,0.04555484708507849
5.143095304251181,0.06059726139065173
5.1458738538482915,0.0638083174870284
5.148652403445402,0.053239233022108645
5.151430953042512,0.036777249908497636
5.154209502639622,0.02650771697863135
5.156988052236732,0.030075387497662344
5.1597666018338435,0.04521984426018529
5.162545151430954,0.06139111030828086
5.165323701028064,0.06729061274640626
5.168102250625174,0.058947246594073514
5.170880800222284,0.04255579808181443
5.173659349819395,0.030048832938401156
5.176437899416505,0.030567247628255925
5.179216449013615,0.04392630208621061
5.181994998610725,0.06074758968203155
5.184773548207836,0.06916261280671743
5.1875520978049465,0.0632962730176877
5.190330647402057,0.04746630831737671
5.193109196999167,0.03309693531949515
5.195887746596277,0.0305528135192738
5.198666296193387,0.041730383899089715
5.201444845790498,0.05870226571748881
5.204223395387608,0.06938369167023403
5.207001944984718,0.06617063448889178
5.209780494581829,0.05137512396429459
5.212559044178939,0.035572609846411155
5.2153375937760496,0.03004266952518518
5.21811614337316,0.038706414751629045
5.22089469297027,0.05532370932425465
5.22367324256738,0.06795361619150704
5.22645179216449,0.06748976282936624
5.229230341761601,0.05416957720184103
5.232008891358711,0.037404616440984424
5.234787440955821,0.029053268661735732
5.237565990552932,0.034944475812490675
5.240344540150042,0.05071128916982204
5.243123089747153,0.0649124166103683
5.245901639344263,0.06721049115701147
5.248680188941373,0.05576126458383091
5.251458738538483,0.0385319577180164
5.254237288135593,0.027606415468257543
5.257015837732704,0.030547720712052525
5.259794387329814,0.044992238722513386
5.262572936926925,0.06033924918523518
5.265351486524035,0.0653284230232962
5.268130036121145,0.05608879150038728
5.270908585718256,0.03890583412834392
5.273687135315366,0.025728781093536972
5.276465684912476,0.025629493790124695
5.279244234509586,0.038318084077850395
5.2820227841066965,0.0543502836274993
5.284801333703807,0.06187833644147954
5.287579883300917,0.05511990141155738
5.290358432898028,0.038491424537292505
5.293136982495138,0.02345146151654769
5.295915532092248,0.02031033199368202
5.298694081689359,0.030860534307760895
5.301472631286469,1.0470956730033656
5.304251180883579,0.05693360490543877
5.307029730480689,0.05285291997024867
5.3098082800777995,0.037269432173104224
5.31258682967491,0.020809584488940297
5.315365379272021,0.014714931618816905
5.318143928869131,0.022806948086464086
5.320922478466241,0.038755687130218985
5.323701028063351,0.05060464283392872
5.326479577660462,0.04931746063520924
5.329258127257572,0.03523733896633738
5.332036676854682,0.017841965458031024
5.334815226451792,0.00896915829236316
5.3375937760489025,0.014355499158345194
5.340372325646014,0.02953611163981714
5.343150875243124,0.04303640819931813
5.345929424840234,0.04457435667167068
5.348707974437344,0.03241031632025111
5.3514865240344545,0.014590807639008075
5.354265073631565,0.00319717371130699
5.357043623228675,0.005710168641503522
5.359822172825785,0.019663033261112878
5.362600722422895,0.03440501973914202
5.3653792720200055,0.03871480408268787
5.368157821617117,0.02882174723202511
5.370936371214227,0.011101436782782147
5.373714920811337,-0.002481254075437627
5.376493470408447,-0.002924305880436009
5.3792720200055575,0.009377147019318065
5.382050569602668,0.02491356944308511
5.384829119199778,0.03185872049513262
5.387607668796888,0.02452332329358354
5.390386218393998,0.007422057240164868
5.393164767991109,-0.007953198377713374
5.39594331758822,-0.011347396025010954
5.39872186718533,-0.0010722674296054424
5.40150041678244,0.014787232329355221
5.40427896637955,0.024152345796189818
5.4070575159766605,0.019584690244780687
5.409836065573771,0.003603512833922894
5.412614615170881,-0.013114730698075516
5.415393164767991,-0.0193675394368642
5.418171714365102,-0.011433545492319949
5.4209502639622125,0.0042677942949233775
5.423728813559323,0.01576513081530103
5.426507363156433,0.014092627183836177
5.429285912753543,-0.0003009660375971326
5.432064462350653,-0.0178727483554497
5.4348430119477635,-0.026806572187318408
5.437621561544874,-0.021458854990211645
5.440400111141984,-0.006392265469642416
5.443178660739094,0.006885980007198306
5.445957210336205,0.00814975696196935
5.4487357599333155,-0.004236048624262783
5.451514309530426,-0.02214644568585177
5.454292859127536,-0.033503732058361727
5.457071408724646,-0.030910273421257142
5.459849958321756,-0.01693598880012731
5.462628507918867,-0.0022810676386730653
5.465407057515977,0.0018727983633581996
5.468185607113087,-0.008144642752270203
5.470964156710198,-0.025868412954718447
5.473742706307308,-0.039319141449798346
5.4765212559044185,-0.03956557211296531
5.479299805501529,-0.027108292541092687
5.482078355098639,-0.011521618881747516
5.484856904695749,-0.004609615972958076
5.487635454292859,-0.011968304475371588
5.49041400388997,-0.028985358334508247
5.49319255348708,-0.0441366941940034
5.495971103084191,-0.04722356293496868
5.498749652681301,-0.036662300823595534
5.501528202278411,-0.020616053164395076
5.5043067518755215,-0.011159518687198954
5.507085301472632,-0.015647733968831627
5.509863851069742,-0.03145845905592595
5.512642400666852,-0.04786628776203884
5.515420950263962,-0.05370887562624399
5.518199499861073,-0.04536549418438729
5.520978049458183,-0.02934487050631225
5.523756599055294,-0.017632533952876374
5.526535148652404,-0.01912336962951257
5.529313698249514,-0.03326335782041653
5.532092247846625,-0.05044536069735104
5.534870797443735,-0.05887604952239396
5.537649347040845,-0.05300551821244117
5.540427896637955,-0.03749412668520129
5.543206446235065,-0.023881089090675857
5.545984995832176,-0.02233608785816224
5.548763545429287,-0.03438982949204811
5.551542095026397,-0.051839714097023246
5.554320644623507,-0.06261284210064293
5.557099194220617,-0.05939550267948467
5.559877743817728,-0.044860817478067666
5.562656293414838,-0.02975783925247181
5.565434843011948,-0.025228010749779324
5.568213392609058,-0.03484115073658778
5.5709919422061684,-0.052043615046352076
5.5737704918032795,-0.06484267777760663
5.57654904140039,-0.06437875430715993
5.5793275909975,-0.05125807279469259
5.58210614059461,-0.03511922400772267
5.58488469019172,-0.02774341810573539
5.587663239788831,-0.0346332114641264
5.590441789385941,-0.05107919858051132
5.593220338983051,-0.06552618322102921
5.595998888580161,-0.06783270213237316
5.5987774381772715,-0.05652002428291835
5.601555987774383,-0.039829067756661084
5.604334537371493,-0.029829754036528957
5.607113086968603,-0.03379341153114116
5.609891636565713,-0.04899520249894151
5.612670186162823,-0.06466177945128676
5.615448735759934,-0.06967199344453205
5.618227285357044,-0.06050621640400736
5.621005834954154,-0.043762131227219114
5.623784384551264,-0.03143871219449895
5.626562934148375,-0.03235938909838054
5.629341483745486,-0.04586508573309559
5.632120033342596,-0.06228532556472878
5.634898582939706,-0.06985065998703874
5.637677132536816,-0.06310544094631267
5.6404556821339265,-0.04680751909625582
5.643234231731037,-0.03252737762079022
5.646012781328147,-0.030377628308215707
5.648791330925257,-0.041784595553117074
5.651569880522368,-0.05846883335347694
5.654348430119478,-0.06836329797072724
5.657126979716589,-0.06423888824667645
5.659905529313699,-0.0488718491559705
5.662684078910809,-0.03305939757019466
5.665462628507919,-0.02790199358280903
5.6682411781050295,-0.03686886134075267
5.67101972770214,-0.0533182957785709
5.67379827729925,-0.06524523081062748
5.67657682689636,-0.06386252470939403
5.679355376493471,-0.04988209149500732
5.682133926090581,-0.03300614874310577
5.684912475687692,-0.02499223594752063
5.687691025284802,-0.031249102669119087
5.690469574881912,-0.046970694555626115
5.693248124479022,-0.060571649700030816
5.6960266740761325,-0.06196862515174413
5.698805223673243,-0.0497879918779634
5.701583773270353,-0.03234786434043077
5.704362322867464,-0.021712513497208003
5.707140872464574,-0.025069046804270332
5.7099194220616845,-0.03959027245806942
5.712697971658795,-0.054455753484781905
5.715476521255905,-0.058586409587606206
5.718255070853015,-0.048564001804066295
5.721033620450125,-0.031074681472510978
5.7238121700472355,-0.018129963632412375
5.726590719644346,-0.018481155347447407
5.729369269241456,-0.03136417381456292
5.732147818838567,-0.04704593509922082
5.734926368435677,-0.05378175674593935
5.7377049180327875,-0.04621064844698303
5.740483467629898,-0.02918756787097619
5.743262017227008,-0.01431335921939339
5.746040566824118,-0.011642761520393875
5.748819116421228,-0.02249757162853474
5.7515976660183386,-0.03852208639059143
5.754376215615449,-0.047655990319314064
5.75715476521256,-0.042755290588326764
5.75993331480967,-0.02669908670458333
5.76271186440678,-0.010331874619815516
5.7654904140038905,-0.0047122185899128935
5.768268963601001,-0.013208411416311665
5.771047513198111,-0.0290911158418679
5.773826062795221,-0.040343758024381296
5.776604612392331,-0.03825222145478052
5.779383161989442,-0.023633959671635372
5.782161711586553,-0.006253980857205492
5.784940261183663,0.002154843759487775
5.787718810780773,-0.0037219099770541067
5.790497360377883,-0.018981793904451188
5.7932759099749935,-0.03201004738994883
5.796054459572104,-0.03278209568598248
5.798833009169214,-0.02002939146565889
5.801611558766324,-0.002146482310273151
5.804390108363434,0.008809064482523856
5.807168657960545,0.005735048299401682
5.809947207557656,-0.008439057840621874
5.812725757154766,-0.02284640512744832
5.815504306751876,-0.02645067507962368
5.818282856348986,-0.015935123166654512
5.821061405946097,0.0019262994822706065
5.823839955543207,0.015110615474789351
5.826618505140317,0.014939474379098665
5.829397054737427,0.0022820783008873193
5.832175604334537,-0.013066448359262612
5.8349541539316485,-0.01938690582020496
5.837732703528759,-0.011413188021763483
5.840511253125869,0.005903195796315711
5.843289802722979,0.020932113317315357
5.846068352320089,0.023677656732858102
5.8488469019172,0.012922853051357486
5.85162545151431,-0.0029007752940961055
5.85440400111142,-0.011740358109111549
5.85718255070853,-0.006537350317018754
5.859961100305641,0.009726721275166777
5.8627396499027515,0.0261611186381125
5.865518199499862,0.03175022941217412
5.868296749096972,0.02322716488191083
5.871075298694082,0.007408600392056519
5.873853848291192,-0.003678076969579355
5.876632397888303,-0.0013922164252322955
5.879410947485413,0.013343476989989576
5.882189497082523,0.03070217644498186
5.884968046679633,0.038976802943289424
5.887746596276744,0.03294789460656691
5.890525145873855,0.01761415365584001
5.893303695470965,0.004619090006373384
5.896082245068075,0.003927983583151492
5.898860794665185,0.01670444211703466
5.901639344262295,0.03447836475677333
5.904417893859406,0.045200048166130755
5.907196443456516,0.0418529825325286
5.909974993053626,0.02746894280386419
5.912753542650737,0.012960606565636423
5.915532092247847,0.00932093542624678
5.918310641844958,0.019765173436859452
5.921089191442068,0.0374323332026727
5.923867741039178,0.05028913905083629
5.926646290636288,0.049731106888518846
5.929424840233398,0.03673274071743775
5.932203389830509,0.021150708140583202
5.934981939427619,0.014678082548877897
5.93776048902473,0.022485933785814115
5.94053903862184,0.03952682755102126
5.94331758821895,0.054142478635526806
5.946096137816061,0.056396820869502456
5.948874687413171,0.04517804622999211
5.951653237010281,0.02899310185626025
5.954431786607391,0.019886741533762315
5.9572103362045015,0.024831771303949077
5.959988885801612,0.040744709963319366
5.962767435398722,0.056689652026333845
5.965545984995833,0.06169502012441968
5.968324534592943,0.05259582115124281
5.971103084190053,0.03629579047810379
5.973881633787164,0.02483245198013465
5.976660183384274,0.026772570835776388
5.979438732981384,0.041088497765856775
5.982217282578494,0.05789257132829241
5.9849958321756045,0.06550463028703457
5.987774381772715,0.058800804356424125
5.990552931369826,0.04287589856420175
5.993331480966936,0.029401512464165357
5.996110030564046,0.028283097206619107
5.9988885801611564,0.04057945534647103
6.001667129758267,0.05774579885489513
6.004445679355377,0.06774142472500427
6.007224228952487,0.06363626423040543
6.010002778549597,0.04856437622526807
6.0127813281467075,0.033483645792674654
6.015559877743819,0.029343047420094852
6.018338427340929,0.039256284120321214
6.021116976938039,0.05627605641095598
6.023895526535149,0.06835990550359469
6.0266740761322595,0.0669780643395932
6.02945262572937,0.0532104563350106
6.03223117532648,0.03697472964788629
6.03500972492359,0.029937125243133387
6.0377882745207,0.03717346412118931
6.0405668241178105,0.053540949283818015
6.043345373714922,0.06735420501413537
6.046123923312032,0.06873793416222801
6.048902472909142,0.05668574482902357
6.051681022506252,0.03977952317838895
6.0544595721033625,0.03005514734231534
6.057238121700473,0.03439930748047483
6.060016671297583,0.049626953264246446
6.062795220894693,0.06475799114918333
6.065573770491803,0.06886585661014574
6.0683523200889145,0.05888783084494409
6.071130869686025,0.04181431636200951
6.073909419283135,0.02969218531510042
6.076687968880245,0.031013788732704262
6.079466518477355,0.044646731043745905
6.0822450680744655,0.060643384638967006
6.085023617671576,0.06735150641009968
6.087802167268686,0.05974331376059893
6.090580716865796,0.04300942724425422
6.093359266462907,0.028848742848751135
6.0961378160600175,0.027106219479528272
6.098916365657128,0.038735860246854784
6.101694915254238,0.055118922515339355
6.104473464851348,0.06422469760076122
6.107252014448458,0.05921015745857712
6.1100305640455685,0.043311472578537256
6.112809113642679,0.027530962077474658
6.115587663239789,0.022772835462731733
6.118366212836899,0.03204906876834439
6.12114476243401,0.04832662597248076
6.1239233120311205,0.05955482380921552
6.126701861628231,0.057279298078514035
6.129480411225341,0.04268534003769814
6.132258960822451,0.025750848236647104
6.135037510419561,0.01811436261462883
6.137816060016672,0.0247560836851001
6.140594609613782,0.040438253511972
6.143373159210892,0.05344930092988907
6.146151708808003,0.05397544972493824
6.148930258405113,0.04111579503910863
6.1517088080022235,0.023526497168272896
6.154487357599334,0.013233625302603406
6.157265907196444,0.01703720757263289
6.160044456793554,0.031650840607420926
6.162823006390664,0.046051047652552406
6.165601555987775,0.0493570726240269
6.168380105584885,0.038608662270063474
6.171158655181995,0.020882306335015432
6.173937204779106,0.008233254949267226
6.176715754376216,0.009078740436211423
6.1794943039733266,0.022181644677939222
6.182272853570437,0.03753506428882895
6.185051403167547,0.04351548955262459
6.187829952764657,0.03519153108754003
6.190608502361767,0.01784914694970633
6.193387051958878,0.0032135507215600365
6.196165601555988,0.0010683666161396474
6.198944151153099,0.012262628477829898
6.201722700750209,0.028104193862086936
6.204501250347319,0.03657315844017869
6.20727979994443,0.03091394490411675
6.21005834954154,0.01446447278959769
6.21283689913865,-0.0017294636902546734
6.21561544873576,-0.0068093760139573065
6.21839399833287,0.0021346257372091837
6.221172547929981,0.01798417082505799
6.223951097527092,0.028681131281676202
6.226729647124202,0.025847047202791348
6.229508196721312,0.010772340369278627
6.232286746318422,-0.006505751743406936
6.235065295915533,-0.014377432341430883
6.237843845512643,-0.007958660228739433
6.240622395109753,0.007418081479006345
6.243400944706863,0.02001575129704026
6.2461794943039735,0.020082670635984123
6.248958043901084,0.0068233154798432
6.251736593498195,-0.011032717838532224
6.254515143095305,-0.02147026754562624
6.257293692692415,-0.0177766713361112
6.260072242289525,-0.003339624315777273
6.262850791886636,0.010774661032855216
6.265629341483746,0.013731870397287056
6.268407891080856,0.002674242703495192
6.271186440677966,-0.015236386306011977
6.2739649902750765,-0.027937512139463994
6.276743539872188,-0.027087870515534785
6.279522089469298,-0.014029418644678862
6.282300639066408,0.0011722132485920377
6.285079188663518,0.006922918309474224
6.287857738260628,-0.0016121426262028313
6.290636287857739,-0.01905229797654396
6.293414837454849,-0.03364713354710074
6.296193387051959,-0.035675331119460585
6.298971936649069,-0.024393118797696244
6.30175048624618,0.9914343934212414
6.304529035843291,-0.00020121057750070032
6.307307585440401,-0.00596777648790899
6.310086135037511,-0.022426125693614716
6.312864684634621,-0.03848806781442087
6.3156432342317315,-0.04334190152105581
6.318421783828842,-0.03418028500774174
6.321200333425952,-0.018206622950124613
6.323978883023062,-0.007485812081334493
6.326757432620172,-0.010320013575951723
6.329535982217283,-0.02531401844681039
6.332314531814394,-0.042372260995811734
6.335093081411504,-0.049914818904210734
6.337871631008614,-0.04315442984144231
6.340650180605724,-0.02751814377735145
6.3434287302028345,-0.014767826665715151
6.346207279799945,-0.01459256526706364
6.348985829397055,-0.0276826912356835
6.351764378994165,-0.045236086610412736
6.354542928591276,-0.055249661831728074
6.357321478188386,-0.05109888111810405
6.360100027785497,-0.03627272222224249
6.362878577382607,-0.021879538905948993
6.365657126979717,-0.01870662653492404
6.368435676576827,-0.029509284107943408
6.3712142261739375,-0.047041122828016355
6.373992775771048,-0.059233549475471804
6.376771325368158,-0.05782214906947403
6.379549874965269,-0.0442538604082904
6.382328424562379,-0.028652517293931215
6.3851069741594895,-0.022582182841359776
6.3878855237566,-0.03078101888989076
6.39066407335371,-0.04777429024245097
6.39344262295082,-0.06178751588279056
6.39622117254793,-0.06316266119274797
6.3989997221450405,-0.05126150809644237
6.401778271742151,-0.03492169969183966
6.404556821339261,-0.026139480416061744
6.407335370936372,-0.03149468583001408
6.410113920533482,-0.047447367747216036
6.4128924701305925,-0.06286800976954854
6.415671019727703,-0.0669927445558393
6.418449569324813,-0.05711721292365724
6.421228118921923,-0.04052952273517654
6.424006668519033,-0.029300635734313872
6.426785218116144,-0.03165599464681882
6.429563767713254,-0.046095919698506536
6.432342317310365,-0.062467493465535893
6.435120866907475,-0.06922175475595944
6.437899416504585,-0.06166878614446103
6.4406779661016955,-0.04532998907760524
6.443456515698806,-0.0319913526994268
6.446235065295916,-0.031278825302747296
6.449013614893026,-0.043777681830137125
6.451792164490136,-0.0606141381659998
6.454570714087247,-0.06979827279469188
6.457349263684358,-0.06479435883776952
6.460127813281468,-0.049192564759533756
6.462906362878578,-0.03414270931868481
6.465684912475688,-0.03038441326089547
6.4684634620727985,-0.040570465916770014
6.471242011669909,-0.05737063593398378
6.474020561267019,-0.06871131522976226
6.476799110864129,-0.06640571798890146
6.479577660461239,-0.05200580029281975
6.48235621005835,-0.035692969804274374
6.485134759655461,-0.029000502113805275
6.487913309252571,-0.03656965367089997
6.490691858849681,-0.05283217133574603
6.493470408446791,-0.0659905284565233
6.496248958043902,-0.06645082937908357
6.499027507641012,-0.05368057332588746
6.501806057238122,-0.03658937328949134
6.504584606835232,-0.027160493440960554
6.507363156432342,-0.03188535857473858
6.5101417060294535,-0.04712361659089264
6.512920255626564,-0.06170536418517406
6.515698805223674,-0.06491547437415957
6.518477354820784,-0.05415285794563185
6.521255904417894,-0.03678984695260424
6.524034454015005,-0.024902619730713584
6.526813003612115,-0.02663934013236686
6.529591553209225,-0.040396033140686086
6.532370102806335,-0.05596325941879252
6.535148652403446,-0.061823949987470594
6.5379272020005565,-0.053385935657005223
6.540705751597667,-0.03626458947471901
6.543484301194777,-0.022269161400622236
6.546262850791887,-0.020961758296190885
6.549041400388997,-0.03282257910395727
6.551819949986108,-0.048906869809125654
6.554598499583218,-0.057238805423500065
6.557377049180328,-0.05137197565025449
6.560155598777438,-0.03499747056878011
6.562934148374549,-0.019305723599257744
6.56571269797166,-0.014987856565523254
6.56849124756877,-0.02459393579461317
6.57126979716588,-0.04071042949729343
6.57404834676299,-0.05125961306612167
6.5768268963601,-0.048132926831202266
6.579605445957211,-0.03298719389570873
6.582383995554321,-0.016060582818464716
6.585162545151431,-0.008854660538136515
6.587941094748542,-0.015913376995530942
6.590719644345652,-0.03157533279890458
6.593498193942763,-0.0440207969055266
6.596276743539873,-0.04372068089382728
6.599055293136983,-0.03024817406913083
6.601833842734093,-0.01258410763944036
6.6046123923312035,-0.002697774651562429
6.607390941928314,-0.006991611788158341
6.610169491525424,-0.021725052785265545
6.612948041122535,-0.03568856603549222
6.615726590719645,-0.038216484034856925
6.618505140316755,-0.02681108361791411
6.621283689913866,-0.008928252426790491
6.624062239510976,0.0033516463226570883
6.626840789108086,0.001958464708791085
6.629619338705196,-0.011399528432630824
6.6323978883023065,-0.026457024437551255
6.635176437899417,-0.03172959427507557
6.637954987496527,-0.02272303264601172
6.640733537093638,-0.005146117706726124
6.643512086690748,0.00916968251829108
6.646290636287858,0.010726978373805367
6.649069185884969,-0.000849165132037275
6.651847735482079,-0.016543550164049264
6.654626285079189,-0.024395201248380766
6.657404834676299,-0.018047352358514453
6.6601833842734095,-0.0012915665325037436
6.66296193387052,0.01464213205855478
6.665740483467631,0.0191121101351341
6.668519033064741,0.009671397359411695
6.671297582661851,-0.006183556642743045
6.6740761322589615,-0.016371645210982933
6.676854681856072,-0.012862963416461155
6.679633231453182,0.0025811174628987397
6.682411781050292,0.019666643958253203
6.685190330647402,0.026924833222219766
6.6879688802445125,0.019909590217948116
6.690747429841623,0.004375234386704501
6.693525979438734,-0.007836991360657602
6.696304529035844,-0.007263320989943858
6.699083078632954,0.006417547251979227
6.7018616282300645,0.02415446455289391
6.704640177827175,0.03399323985938603
6.707418727424285,0.029621133748860468
6.710197277021395,0.014878865294597745
6.712975826618505,0.0010149662028212034
6.7157543762156156,-0.0013549401078992891
6.718532925812727,0.010163543299314041
6.721311475409837,0.028031773395591493
6.724090025006947,0.04016635650970684
6.726868574604057,0.03857601126481282
6.7296471242011675,0.025073407500286662
6.732425673798278,0.009979179923009958
6.735204223395388,0.004744482878705804
6.737982772992498,0.013765457002067872
6.740761322589608,0.031240596910616293
6.7435398721867195,0.04531736204573989
6.74631842178383,0.04656404865554351
6.74909697138094,0.03471126020675582
6.75187552097805,0.018844198169603664
6.75465407057516,0.010908324552064915
6.7574326201722705,0.0171705247606012
6.760211169769381,0.03373930018629229
6.762989719366491,0.04934614044171014
6.765768268963601,0.05339996074829628
6.768546818560711,0.043557322457844966
6.7713253681578225,0.02739727111886903
6.774103917754933,0.01700362412432661
6.776882467352043,0.020327268845577104
6.779661016949153,0.035502668779867866
6.782439566546263,0.052181118247808245
6.785218116143374,0.05892774020057259
6.787996665740484,0.05139488049187595
6.790775215337594,0.035429586639316925
6.793553764934704,0.022893956813059033
6.796332314531815,0.023185958262794307
6.7991108641289255,0.03652160297359114
6.801889413726036,0.05378035669024844
6.804667963323146,0.0630242824509796
6.807446512920256,0.058031058964669056
6.810225062517366,0.04274150385554012
6.813003612114477,0.02844252864357794
6.815782161711587,0.02569913891858161
6.818560711308697,0.0368024562850658
6.821339260905808,0.05413188819442748
6.824117810502918,0.06560216068911907
6.8268963601000285,0.06330169521143192
6.829674909697139,0.049147649663771935
6.832453459294249,0.03351542129069785
6.835232008891359,0.027822237718568864
6.838010558488469,0.03636605796405925
6.84078910808558,0.053253306906622125
6.84356765768269,0.06661148733266617
6.8463462072798,0.06707551004610861
6.849124756876911,0.054481744631357625
6.851903306474021,0.0379849081168562
6.854681856071132,0.029514239986020662
6.857460405668242,0.03524646552339554
6.860238955265352,0.051190641861551325
6.863017504862462,0.06604082250784844
6.865796054459572,0.06925746629298092
6.868574604056683,0.058601029459259164
6.871353153653793,0.04173275707412155
6.874131703250904,0.03073843398422302
6.876910252848014,0.033489497931621884
6.879688802445124,0.048016559308340846
6.882467352042235,0.06391711487192402
6.885245901639345,0.06979122685139635
6.888024451236455,0.061390171449531045
6.890803000833565,0.044653432850388
6.893581550430675,0.031463210611057085
6.896360100027786,0.031151102877459143
6.899138649624897,0.04382795690911063
6.901917199222007,0.060304685129224184
6.904695748819117,0.06866064707386588
6.907474298416227,0.06276454203255488
6.910252848013338,0.046657109731875875
6.913031397610448,0.03166290075304307
6.915809947207558,0.028295612499210344
6.918588496804668,0.03874302666088631
6.9213670464017785,0.05530328711253302
6.924145595998889,0.0658902609882428
6.926924145596,0.0626727711067773
6.92970269519311,0.04767240823581436
6.93248124479022,0.03131862759147136
6.93525979438733,0.024993941210660776
6.938038343984441,0.03289787512711024
6.940816893581551,0.04904530468402482
6.943595443178661,0.061544746765112304
6.946373992775771,0.06109850137772928
6.9491525423728815,0.04764877267903009
6.951931091969993,0.030419146586988695
6.954709641567103,0.02132177686040046
6.957488191164213,0.026442798638089293
6.960266740761323,0.04169216434664458
6.9630452903584334,0.05572738313936817
6.965823839955544,0.05806128562006706
6.968602389552654,0.04655841345605982
6.971380939149764,0.028961642155833342
6.974159488746874,0.017357812592498186
6.976938038343985,0.019538317348296048
6.979716587941096,0.03343006279078493
6.982495137538206,0.04857753454451236
6.985273687135316,0.05361659132796863
6.988052236732426,0.04439774679509634
6.9908307863295365,0.0269524473889544
6.993609335926647,0.013182061636572994
6.996387885523757,0.01235107532376704
6.999166435120867,0.024465125143029037
7.001944984717977,0.04026722781941864
7.004723534315088,0.047854900007920004
7.007502083912199,0.041188275958890026
7.010280633509309,0.024407651718612304
7.013059183106419,0.00887429108147152
7.015837732703529,0.005049714160805793
7.0186162823006395,0.015018123023884672
7.02139483189775,0.03099690683464789
7.02417338149486,0.04089991180742426
7.02695193109197,0.036976871008182484
7.029730480689081,0.02135356132911748
7.0325090302861915,0.004512603742554827
7.035287579883302,-0.0021991749231815502
7.038066129480412,0.00531889134017984
7.040844679077522,0.02099047263609032
7.043623228674632,0.03290588964054629
7.0464017782717425,0.03183541903046591
7.049180327868853,0.017826978416884975
7.051958877465963,0.00017218979818367681
7.054737427063074,-0.009234920886492356
7.057515976660184,-0.00439941118685183
7.0602945262572945,0.010489735154009614
7.063073075854405,0.024054199835700306
7.065851625451515,0.025859832783404514
7.068630175048625,0.013875268155750905
7.071408724645735,-0.004075737767904035
7.0741872742428455,-0.015906372726772828
7.076965823839956,-0.013906050543533102
7.079744373437066,-0.0002515823133728502
7.082522923034177,0.014549127971142942
7.085301472631287,0.019168422590301906
7.0880800222283975,0.009556186393317661
7.090858571825508,-0.0081648174409608
7.093637121422618,-0.022075147641852966
7.096415671019728,-0.022978329443675234
7.099194220616838,-0.010974133161490656
7.101972770213949,0.004613068383807213
7.104751319811059,0.011899653599290643
7.10752986940817,0.004937446612753067
7.11030841900528,-0.012034223900171476
7.11308696860239,-0.027618457658381702
7.1158655181995005,-0.031406922741103925
7.118644067796611,-0.021419371926743896
7.121422617393721,-0.005518796715169595
7.124201166990831,0.004209327700132175
7.126979716587941,9.601141494009965e-05
7.129758266185052,-0.015629170541403142
7.132536815782162,-0.03243145834129476
7.135315365379273,-0.039000805168819264
7.138093914976383,-0.03133594966774032
7.140872464573493,-0.015604198003297869
7.1436510141706036,-0.003732754005154413
7.146429563767714,-0.004882898471850465
7.149208113364824,-0.018901242944764654
7.151986662961934,-0.03642907772204287
7.154765212559044,-0.045591652684442305
7.157543762156155,-0.0404859178066219
7.160322311753266,-0.025399717878630726
7.163100861350376,-0.011746576742091789
7.165879410947486,-0.009907076082579926
7.168657960544596,-0.0218085812372069
7.171436510141707,-0.0395472987519938
7.174215059738817,-0.05103761398114207
7.176993609335927,-0.048650583172007225
7.179772158933037,-0.03466681788013701
7.182550708530147,-0.019646060165830904
7.1853292581272585,-0.014878870316751683
7.188107807724369,-0.024315932971249406
7.190886357321479,-0.0417438839545783
7.193664906918589,-0.055226366490283056
7.196443456515699,-0.05563586629486082
7.19922200611281,-0.043177801409124805
7.20200055570992,-0.027243471524171243
7.20477910530703,-0.019696978177033638
7.20755765490414,-0.026394600585537675
7.2103362045012505,-0.04299854607712608
7.213114754098362,-0.05807739094868611
7.215893303695472,-0.06127702815666264
7.218671853292582,-0.050721558659993754
7.221450402889692,-0.034353996671719136
7.224228952486802,-0.024258457731235476
7.227007502083913,-0.028022308691141792
7.229786051681023,-0.0433125830122703
7.232564601278133,-0.0595434197747785
7.235343150875243,-0.06544264722117518
7.238121700472354,-0.0571089448983094
7.240900250069465,-0.04080035469013254
7.243678799666575,-0.02846092340417194
7.246457349263685,-0.029183016344157358
7.249235898860795,-0.042708008681956657
7.252014448457905,-0.05961103650895758
7.254792998055016,-0.06803774824662145
7.257571547652126,-0.06217765141039265
7.260350097249236,-0.04641733776699458
7.263128646846347,-0.03220487690722481
7.265907196443457,-0.029866698177647134
7.268685746040568,-0.0412262236091821
7.271464295637678,-0.0583004258236858
7.274242845234788,-0.06900600654694759
7.277021394831898,-0.0657964404066062
7.2797999444290085,-0.051056156998694896
7.282578494026119,-0.035396119804091505
7.285357043623229,-0.030069115874252914
7.288135593220339,-0.03892627924895284
7.29091414281745,-0.05566429550145843
7.29369269241456,-0.0683309754539941
7.296471242011671,-0.06786863060063694
7.299249791608781,-0.054588477009034915
7.302028341205891,0.9620518123209436
7.304806890803001,-0.029791598107916848
7.3075854404001115,-0.0358827985746659
7.310363989997222,-0.05178601273365087
7.313142539594332,-0.06603631008426206
7.315921089191443,-0.06833473872632959
7.318699638788553,-0.05691002772535274
7.321478188385663,-0.03978474137663976
7.324256737982774,-0.029040842947186764
7.327035287579884,-0.03218362174732502
7.329813837176994,-0.04677701656731038
7.332592386774104,-0.062184986459457914
7.3353709363712145,-0.0671742034191335
7.338149485968325,-0.05794369024743365
7.340928035565436,-0.040841848034830805
7.343706585162546,-0.027828752000023934
7.346485134759656,-0.027927249827972612
7.3492636843567665,-0.040773585822661655
7.352042233953877,-0.05687754088093787
7.354820783550987,-0.0644061411374733
7.357599333148097,-0.05764196531111701
7.360377882745207,-0.041070083806927817
7.3631564323423175,-0.026172300518069805
7.365934981939428,-0.023220161392316314
7.368713531536539,-0.03393305688954502
7.371492081133649,-0.05024937953246629
7.374270630730759,-0.06008910852422868
7.3770491803278695,-0.055988747131775256
7.37982772992498,-0.04043639137220043
7.38260627952209,-0.02409344250628017
7.3853848291192,-0.01817407660251722
7.38816337871631,-0.026429598123015596
7.390941928313421,-0.04246723192375763
7.393720477910532,-0.0543198711625317
7.396499027507642,-0.053000342075599234
7.399277577104752,-0.03892562862528799
7.402056126701862,-0.021619044843833535
7.4048346762989725,-0.012903240881874684
7.407613225896083,-0.018449656819810145
7.410391775493193,-0.03372484337323836
7.413170325090303,-0.0472312043883769
7.415948874687413,-0.048725690238969735
7.4187274242845245,-0.03654175029662169
7.421505973881635,-0.018780839750126108
7.424284523478745,-0.007521795980177742
7.427063073075855,-0.01018720077499909
7.429841622672965,-0.02423802070199685
7.4326201722700755,-0.03898877700278612
7.435398721867186,-0.04324576814581637
7.438177271464296,-0.03330857161400903
7.440955821061406,-0.01561538084649948
7.443734370658516,-0.002141300122026405
7.4465129202556275,-0.0018388790949358767
7.449291469852738,-0.014239161187396918
7.452070019449848,-0.0297871927068903
7.454848569046958,-0.03667217187781299
7.457627118644068,-0.0292700723264891
7.460405668241179,-0.012163984767827625
7.463184217838289,0.003131548645949455
7.465962767435399,0.006400773729190493
7.468741317032509,-0.003971407203311004
7.47151986662962,-0.019845286221541247
7.4742984162267305,-0.029144901474509467
7.477076965823841,-0.024490210270610473
7.479855515420951,-0.008472637934756529
7.482634065018061,0.00819694055744712
7.485412614615171,0.014343970415443451
7.488191164212282,0.0063174224495062305
7.490969713809392,-0.009400790752672175
7.493748263406502,-0.02082938880083059
7.496526813003613,-0.019052225903754518
7.499305362600723,-0.0045918468365774845
7.5020839121978335,0.0129636979599529
7.504862461794944,0.021814027101997674
7.507641011392054,0.016380968944750017
7.510419560989164,0.0012954898084227657
7.513198110586274,-0.01191283169369718
7.515976660183385,-0.013057432545262593
7.518755209780495,-0.0005764100834141639
7.521533759377605,0.01735070932760736
7.524312308974716,0.028649339976448893
7.527090858571826,0.025980381504533634
7.529869408168937,0.011985857259791954
7.532647957766047,-0.0025999164949768085
7.535426507363157,-0.006623501096736413
7.538205056960267,0.0035149083942276702
7.540983606557377,0.021288038262929066
7.543762156154488,0.03470689148206249
7.546540705751598,0.03489012468110687
7.549319255348709,0.02241208783967877
7.552097804945819,0.0068919714906708045
7.554876354542929,0.00011773763236166274
7.55765490414004,0.007619823298620985
7.56043345373715,0.024717702519571675
7.56321200333426,0.03986520972931422
7.56599055293137,0.04290339992304752
7.5687691025284805,0.032321831702733284
7.571547652125591,0.016337935010139405
7.574326201722702,0.007022935601325324
7.577104751319812,0.011673103901404122
7.579883300916922,0.02759412784623571
7.582661850514032,0.04402672088333193
7.585440400111143,0.04983704775880654
7.588218949708253,0.04147488023183802
7.590997499305363,0.02551102249198009
7.593776048902473,0.013940264069167815
7.5965545984995835,0.015607292280602987
7.599333148096694,0.02988429047530319
7.602111697693805,0.04711945163472314
7.604890247290915,0.05553581157109659
7.607668796888025,0.04964914131374482
7.610447346485135,0.03418782036830184
7.613225896082246,0.020712780008416778
7.616004445679356,0.019353568764236533
7.618782995276466,0.03156757010429608
7.621561544873576,0.04909805689230078
7.6243400944706865,0.05987586154234169
7.627118644067798,0.05664616991145793
7.629897193664908,0.04215403857317104
7.632675743262018,0.027182046943687088
7.635454292859128,0.02284276336481411
7.6382328424562385,0.03263534203167359
7.641011392053349,0.04994416605265172
7.643789941650459,0.06276749743002054
7.646568491247569,0.06229611247560221
7.649347040844679,0.04920994578933852
7.6521255904417895,0.03319192498538067
7.654904140038901,0.02600650537586523
7.657682689636011,0.03309034254656424
7.660461239233121,0.04966605910120923
7.663239788830231,0.06415697082501706
7.6660183384273415,0.06646193865970049
7.668796888024452,0.055175512881148324
7.671575437621562,0.0385924371102621
7.674353987218672,0.028778496442776216
7.677132536815782,0.0329458456227615
7.679911086412893,0.04829770090082325
7.682689636010004,0.06402739085395691
7.685468185607114,0.06904285205178981
7.688246735204224,0.05989512859900031
7.691025284801334,0.04324361336297621
7.6938038343984445,0.031095885579072485
7.696582383995555,0.03222469137348384
7.699360933592665,0.04589717787864338
7.702139483189775,0.0623987012763062
7.704918032786886,0.06997679272600212
7.7076965823839965,0.06324176096466949
7.710475131981107,0.04701921184206787
7.713253681578217,0.032900718047401425
7.716032231175327,0.03095820758222981
7.718810780772437,0.04254459552810909
7.7215893303695475,0.059326740955065606
7.724367879966658,0.06924196779788361
7.727146429563768,0.06512045054497916
7.729924979160878,0.049810215249416666
7.732703528757989,0.034141424032546844
7.7354820783550995,0.029185064987277944
7.73826062795221,0.03833950735417777
7.74103917754932,0.05490142310850205
7.74381772714643,0.06685737121767854
7.74659627674354,0.06547103779009181
7.749374826340651,0.05152800450630111
7.752153375937761,0.03477430786185062
7.754931925534871,0.026950104963993533
7.757710475131982,0.033397955825504005
7.760489024729092,0.04924409096488172
7.7632675743262025,0.06288228009476166
7.766046123923313,0.06427004536281619
7.768824673520423,0.05210711647633997
7.771603223117533,0.034764994416112485
7.774381772714643,0.024303174967216058
7.777160322311754,0.0278492133473147
7.779938871908864,0.04250412786743539
7.782717421505975,0.057414741224220855
7.785495971103085,0.06153165744366615
7.788274520700195,0.05150750110798943
7.7910530702973055,0.03408978653171744
7.793831619894416,0.02129800275079399
7.796610169491526,0.02183231609949366
7.799388719088636,0.0348549179921424
7.802167268685746,0.050589087485627786
7.804945818282857,0.0573077608255909
7.807724367879967,0.04971620415924169
7.810502917477078,0.0327368857955925
7.813281467074188,0.017991135191218786
7.816060016671298,0.015492485740303322
7.818838566268409,0.02648926919540619
7.821617115865519,0.04257254871782224
7.824395665462629,0.05168703661822731
7.827174215059739,0.04674841485864762
7.829952764656849,0.03070742930738941
7.83273131425396,0.014440961748254722
7.835509863851071,0.008977533479145577
7.838288413448181,0.01761442172981914
7.841066963045291,0.033561044883634934
7.843845512642401,0.04479311593480642
7.846624062239512,0.04264783308079487
7.849402611836622,0.028016296806410802
7.852181161433732,0.010706836453092628
7.854959711030842,0.0024343379688702704
7.857738260627952,0.008446775371749093
7.8605168102250635,0.023774270215354484
7.863295359822174,0.036781837383207144
7.866073909419284,0.03748632749668847
7.868852459016394,0.024692646058435432
7.871631008613504,0.00684830608507706
7.874409558210615,-0.003994516972778143
7.877188107807725,-0.0007935272919384461
7.879966657404835,0.013450195026840344
7.882745207001945,0.02783766787211666
7.8855237565990555,0.03136287427015129
7.888302306196167,0.020780139537450438
7.891080855793277,0.0029244461369885765
7.893859405390387,-0.01017386639997806
7.896637954987497,-0.009888022155766441
7.899416504584607,0.002839126524152801
7.902195054181718,0.01816937053352851
7.904973603778828,0.024401784735317365
7.907752153375938,0.016336832130070967
7.910530702973048,-0.0010066994798667373
7.913309252570159,-0.015978781087584555
7.91608780216727,-0.01862521236337552
7.91886635176438,-0.007802519136747221
7.92164490136149,0.008005023846556512
7.9244234509586,0.01675024960066796
7.9272020005557104,0.011434697689325375
7.929980550152821,-0.004888584056688251
7.932759099749931,-0.02129701924780864
7.935537649347041,-0.026805593168569727
7.938316198944152,-0.01821857438484511
7.941094748541262,-0.0024134862334720935
7.943873298138373,0.008575246056986032
7.946651847735483,0.006158781572902616
7.949430397332593,-0.008666542293371432
7.952208946929703,-0.026031067341750695
7.9549874965268135,-0.03424629057953085
7.957766046123924,-0.028159445465794894
7.960544595721034,-0.012836364675771232
7.963323145318144,5.9872192079150205e-05
7.966101694915255,0.0006059765707771246
7.968880244512365,-0.012288109565426662
7.971658794109476,-0.030099737161940004
7.974437343706586,-0.04078520360434733
7.977215893303696,-0.037388244971332654
7.979994442900806,-0.02301204865170523
7.9827729924979165,-0.008600810182796435
7.985551542095027,-0.0051165694270291495
7.988330091692137,-0.015703294852276978
7.991108641289248,-0.03343929968858589
7.993887190886358,-0.046284554725687044
7.9966657404834685,-0.04568657694144207
7.999444290080579,-0.03269343664440983
8.002222839677689,-0.017204328300579212
8.005001389274799,-0.010893394371792025
8.00777993887191,-0.018864826895954548
8.01055848846902,-0.036004149526547714
8.01333703806613,-0.05063377028158823
8.01611558766324,-0.052859829496941416
8.01889413726035,-0.04164404697364056
8.02167268685746,-0.025545638178870855
8.02445123645457,-0.016602980643997487
8.02722978605168,-0.0217283929487714
8.030008335648793,-0.037767006626609555
8.032786885245903,-0.053751631222565335
8.035565434843013,-0.058741843378181766
8.038343984440123,-0.04964394808370988
8.041122534037234,-0.03342213274061046
8.043901083634344,-0.02212028935966312
8.046679633231454,-0.024252888109018607
8.049458182828564,-0.03871867412250144
8.052236732425675,-0.055587654717733116
8.055015282022785,-0.06319884154574451
8.057793831619895,-0.05649530785000003
8.060572381217005,-0.0406386927354351
8.063350930814115,-0.027319518205698234
8.066129480411226,-0.02640069080836235
8.068908030008336,-0.03886738214886703
8.071686579605446,-0.05612268773589772
8.074465129202556,-0.06613252468006114
8.077243678799666,-0.06202741810339452
8.080022228396777,-0.047012651128770074
8.082800777993889,-0.032077021408174755
8.085579327590999,-0.02813797662189925
8.088357877188109,-0.038237757162079646
8.09113642678522,-0.055368714464204494
8.09391497638233,-0.06748225946312772
8.09669352597944,-0.06610106333889523
8.09947207557655,-0.05237854127238321
8.10225062517366,-0.03627432261405302
8.10502917477077,-0.029435078379024582
8.10780772436788,-0.03686946433737428
8.11058627396499,-0.05336789968896088
8.113364823562101,-0.06722631033965928
8.116143373159211,-0.0686121188442763
8.118921922756321,-0.05659250228894712
8.121700472353432,-0.03980114532403847
8.124479021950542,-0.0302668957508043
8.127257571547652,-0.03481557688695063
8.130036121144762,-0.05019090951373442
8.132814670741872,-0.06538209039720051
8.135593220338984,-0.06949428284338575
8.138371769936095,-0.05953622167336705
8.141150319533205,-0.042558381307913076
8.143928869130315,-0.03061335229365912
8.146707418727425,-0.03214073052304081
8.149485968324536,-0.045934568531357675
8.152264517921646,-0.0620054324074612
8.155043067518756,-0.06872086919688158
8.157821617115866,-0.061120305017902006
8.160600166712976,-0.04446091536764554
8.163378716310087,-0.030459892575159683
8.166157265907197,-0.02891912372791696
8.168935815504307,-0.04071892835163856
8.171714365101417,-0.05718890626027266
8.174492914698527,-0.0663056111690499
8.177271464295638,-0.061286975793291995
8.180050013892748,-0.04544022503374481
8.182828563489858,-0.02979800673912701
8.18560711308697,-0.025232425001189645
8.18838566268408,-0.03468383583054936
8.19116421228119,-0.05105923333217572
8.1939427618783,-0.062302452126182434
8.196721311475411,-0.06001202396533878
8.199499861072521,-0.045446676367672176
8.202278410669631,-0.02862576492897797
8.205056960266742,-0.02116764690634406
8.207835509863852,-0.02798510013640073
8.210614059460962,-0.0437738711272213
8.213392609058072,-0.056804325111419876
8.216171158655182,-0.05730594050905617
8.218949708252293,-0.044451442007879094
8.221728257849403,-0.02694833961567069
8.224506807446513,-0.01681504366231663
8.227285357043623,-0.02079036569205734
8.230063906640734,-0.03551686221806767
8.232842456237844,-0.04994094935496897
8.235621005834954,-0.05321419514604909
8.238399555432066,-0.04244797488045583
8.241178105029176,-0.024778490287343247
8.243956654626286,-0.012266084400196924
8.246735204223397,-0.013274802899350985
8.249513753820507,-0.02649405956957436
8.252292303417617,-0.04187569723457974
8.255070853014727,-0.047816636356144235
8.257849402611837,-0.039452980464794084
8.260627952208948,-0.022136982344584444
8.263406501806058,-0.00761154825271643
8.266185051403168,-0.0056167303227977056
8.268963601000278,-0.016927855291271773
8.271742150597388,-0.032801609323337824
8.274520700194499,-0.041226015335679565
8.277299249791609,-0.03550684195876607
8.28007779938872,-0.019052910564345663
8.28285634898583,-0.0029397804210771657
8.28563489858294,0.002006719290720445
8.28841344818005,-0.007051551370251067
8.291191997777162,-0.022936657308164847
8.293970547374272,-0.03358565849460691
8.296749096971382,-0.030673465861387927
8.299527646568492,-0.015563897267164525
8.302306196165603,1.001664859447265
8.305084745762713,0.009423781040987785
8.307863295359823,0.002896481290030369
8.310641844956933,-0.01251837414199779
8.313420394554043,-0.02506633568764526
8.316198944151154,-0.02503953005683888
8.318977493748264,-0.011716136417268826
8.321756043345374,0.006123333538286934
8.324534592942484,0.016471986867800582
8.327313142539595,0.012678705325630455
8.330091692136705,-0.0017979872841083159
8.332870241733815,-0.01586239304721263
8.335648791330925,-0.018713132067294795
8.338427340928035,-0.007564257328520286
8.341205890525147,0.010363032267114332
8.343984440122258,0.02300174996264015
8.346762989719368,0.02206423075310379
8.349541539316478,0.008965796156309547
8.352320088913588,-0.006187239431151818
8.355098638510698,-0.011821851326214366
8.357877188107809,-0.003170985414243809
8.360655737704919,0.014318644628837158
8.363434287302029,0.028879524770646686
8.36621283689914,0.03083439409613652
8.36899138649625,0.019513194472496456
8.37176993609336,0.0037317064460091285
8.37454848569047,-0.004510255662175191
8.37732703528758,0.0013934175726056132
8.38010558488469,0.017932794332758486
8.3828841344818,0.03399047627246113
8.38566268407891,0.03878796447824916
8.388441233676021,0.029589783741932798
8.391219783273131,0.013658485675165834
8.393998332870243,0.003063101786110946
8.396776882467353,0.006051945236929077
8.399555432064464,0.021156450886404225
8.402333981661574,0.03824060713102688
8.405112531258684,0.04574584966507016
8.407891080855794,0.038952793957641736
8.410669630452904,0.023354350680278437
8.413448180050015,0.010729133746945441
8.416226729647125,0.01072187453482458
8.419005279244235,0.02394913125737902
8.421783828841345,0.04155830711235099
8.424562378438456,0.051555189523276805
8.427340928035566,0.047377108886429806
8.430119477632676,0.032583654696450116
8.432898027229786,0.018312042582949523
8.435676576826896,0.015316026622174399
8.438455126424007,0.02627891313880511
8.441233676021117,0.04389530547712234
8.444012225618227,0.05609274160598485
8.446790775215339,0.05466081736527112
8.44956932481245,0.041119729995231585
8.45234787440956,0.025633428784098397
8.45512642400667,0.019744248836764563
8.45790497360378,0.02812228503401681
8.46068352320089,0.04522702332608414
8.463462072798,0.05926748308344888
8.46624062239511,0.06063017545007632
8.46901917199222,0.04875060424753945
8.471797721589331,0.032516586018036
8.474576271186441,0.02391509760651745
8.477354820783551,0.02946386126616368
8.480133370380662,0.04555233871385707
